indice,tiempo_s,adc_raw,ecg_filtrado,bpm_estimado
0,0.000000,345,26.618576,
1,0.002776,344,107.377704,
2,0.005552,345,208.438392,
3,0.008328,346,285.508867,
4,0.011104,345,330.489590,
5,0.013880,343,348.667984,
6,0.016656,342,347.714069,
7,0.019432,342,335.543048,
8,0.022208,342,320.284381,
9,0.024984,343,308.695035,
10,0.027760,344,303.582636,
11,0.030536,345,302.846753,
12,0.033312,345,301.864134,
13,0.036088,345,297.640483,
14,0.038864,344,291.051881,
15,0.041640,344,285.349260,
16,0.044416,343,282.596526,
17,0.047192,342,281.493385,
18,0.049968,341,278.830295,
19,0.052744,341,272.923131,
20,0.055520,341,265.344595,
21,0.058296,341,259.323751,
22,0.061072,341,256.605373,
23,0.063848,340,255.780542,
24,0.066624,340,253.736971,
25,0.069400,341,248.886535,
26,0.072176,342,242.652451,
27,0.074952,343,237.904015,
28,0.077728,342,236.028741,
29,0.080504,340,235.425930,
30,0.083280,339,233.152732,
31,0.086056,338,227.826963,
32,0.088832,337,220.752687,
33,0.091608,337,214.682602,
34,0.094384,337,211.354527,
35,0.097160,337,209.919722,
36,0.099936,338,208.014904,
37,0.102712,338,204.176963,
38,0.105488,339,199.158055,
39,0.108264,340,195.153047,
40,0.111040,341,193.518032,
41,0.113816,340,193.214564,
42,0.116592,340,191.827401,
43,0.119368,340,188.068069,
44,0.122144,340,182.891185,
45,0.124920,340,178.409340,
46,0.127696,339,175.824220,
47,0.130472,338,174.275987,
48,0.133248,336,171.739606,
49,0.136024,336,167.112147,
50,0.138800,336,161.411501,
51,0.141576,336,156.683205,
52,0.144352,336,154.033404,
53,0.147128,337,152.818627,
54,0.149904,338,151.410465,
55,0.152680,338,148.656557,
56,0.155456,336,144.708285,
57,0.158232,335,140.743557,
58,0.161008,334,137.796077,
59,0.163784,334,135.644947,
60,0.166560,334,133.115542,
61,0.169336,334,129.425084,
62,0.172112,333,125.014204,
63,0.174888,333,121.170202,
64,0.177664,333,118.808235,
65,0.180440,334,117.548560,
66,0.183216,333,115.988244,
67,0.185992,333,113.050893,
68,0.188768,333,109.176044,
69,0.191544,333,105.779266,
70,0.194320,334,103.791630,
71,0.197096,335,102.898704,
72,0.199872,337,101.972608,
73,0.202648,338,100.239888,
74,0.205424,337,97.799723,
75,0.208200,336,95.319223,
76,0.210976,334,93.258754,
77,0.213752,332,91.156978,
78,0.216528,330,88.023891,
79,0.219304,330,83.570798,
80,0.222080,330,78.759738,
81,0.224856,331,75.032399,
82,0.227632,331,73.074126,
83,0.230408,332,72.291169,
84,0.233184,331,71.338171,
85,0.235960,332,69.311074,
86,0.238736,331,66.493629,
87,0.241512,331,63.807993,
88,0.244288,331,61.924231,
89,0.247064,332,60.737698,
90,0.249840,332,59.463534,
91,0.252616,332,57.423029,
92,0.255392,331,54.711851,
93,0.258168,329,51.933783,
94,0.260944,327,49.434732,
95,0.263720,328,47.172850,
96,0.266496,328,44.890209,
97,0.269272,328,42.266454,
98,0.272048,328,39.465028,
99,0.274824,329,37.239640,
100,0.277600,329,36.076122,
101,0.280376,329,35.512012,
102,0.283152,329,34.589458,
103,0.285928,328,32.702772,
104,0.288704,327,30.000290,
105,0.291480,327,27.296149,
106,0.294256,327,25.328054,
107,0.297032,329,24.166039,
108,0.299808,331,23.428663,
109,0.302584,332,22.667670,
110,0.305360,330,21.549534,
111,0.308136,329,20.059636,
112,0.310912,327,18.401282,
113,0.313688,327,16.568967,
114,0.316464,326,14.323745,
115,0.319240,327,11.636041,
116,0.322016,328,9.089236,
117,0.324792,330,7.536186,
118,0.327568,332,7.371208,
119,0.330344,336,8.341817,
120,0.333120,338,9.732830,
121,0.335896,339,10.689342,
122,0.338672,338,10.751822,
123,0.341448,338,10.116899,
124,0.344224,336,9.120650,
125,0.347000,336,7.731262,
126,0.349776,334,5.681756,
127,0.352552,334,2.902241,
128,0.355328,334,-0.046460,
129,0.358104,334,-2.367185,
130,0.360880,335,-3.692928,
131,0.363656,336,-4.214384,
132,0.366432,336,-4.600929,
133,0.369208,335,-5.545687,
134,0.371984,334,-7.190205,
135,0.374760,332,-9.188153,
136,0.377536,329,-11.370383,
137,0.380312,327,-13.927603,
138,0.383088,324,-17.115716,
139,0.385864,322,-20.968728,
140,0.388640,319,-25.117136,
141,0.391416,318,-28.933823,
142,0.394192,317,-31.895958,
143,0.396968,318,-33.905203,
144,0.399744,318,-35.270402,
145,0.402520,319,-36.359139,
146,0.405296,319,-37.241401,
147,0.408072,320,-37.729274,
148,0.410848,320,-37.750896,
149,0.413624,321,-37.572148,
150,0.416400,320,-37.697570,
151,0.419176,319,-38.568793,
152,0.421952,317,-40.202624,
153,0.424728,317,-42.107428,
154,0.427504,317,-43.669592,
155,0.430280,317,-44.747843,
156,0.433056,318,-45.593345,
157,0.435832,318,-46.380154,
158,0.438608,317,-47.202368,
159,0.441384,316,-48.084804,
160,0.444160,312,-49.236464,
161,0.446936,310,-51.091650,
162,0.449712,309,-53.650230,
163,0.452488,305,-56.698459,
164,0.455264,298,-60.482469,
165,0.458040,288,-65.542237,
166,0.460816,275,-72.477087,
167,0.463592,261,-81.793711,
168,0.466368,248,-93.444012,
169,0.469144,245,-105.901509,
170,0.471920,251,-115.874548,
171,0.474696,272,-119.338856,
172,0.477472,301,-113.057815,
173,0.480248,328,-96.708605,
174,0.483024,353,-73.358332,
175,0.485800,375,-47.178180,
176,0.488576,396,-21.362385,
177,0.491352,415,2.409676,
178,0.494128,429,23.241476,
179,0.496904,437,40.152473,
180,0.499680,436,51.885830,
181,0.502456,426,57.053866,
182,0.505232,409,54.647829,
183,0.508008,386,44.470859,
184,0.510784,360,27.155201,
185,0.513560,337,4.439630,
186,0.516336,318,-20.742280,
187,0.519112,304,-45.114265,
188,0.521888,293,-66.164164,
189,0.524664,282,-82.968022,
190,0.527440,273,-96.065103,
191,0.530216,268,-106.234183,
192,0.532992,267,-113.654877,
193,0.535768,272,-117.863046,
194,0.538544,280,-118.152571,
195,0.541320,292,-114.167503,
196,0.544096,301,-106.475314,
197,0.546872,306,-96.977607,
198,0.549648,308,-88.129163,
199,0.552424,309,-81.564153,
200,0.555200,309,-77.672655,
201,0.557976,309,-75.999831,
202,0.560752,308,-75.828349,
203,0.563528,308,-76.484800,
204,0.566304,308,-77.367385,
205,0.569080,308,-78.093538,
206,0.571856,308,-78.562131,
207,0.574632,309,-78.731275,
208,0.577408,308,-78.676096,
209,0.580184,309,-78.572448,
210,0.582960,309,-78.424552,
211,0.585736,309,-78.251748,
212,0.588512,308,-78.224220,
213,0.591288,307,-78.506915,
214,0.594064,306,-79.132730,
215,0.596840,305,-80.005004,
216,0.599616,305,-80.937568,
217,0.602392,306,-81.611128,
218,0.605168,307,-81.748546,
219,0.607944,308,-81.322280,
220,0.610720,309,-80.483728,
221,0.613496,309,-79.494101,
222,0.616272,306,-78.899141,
223,0.619048,304,-79.256213,
224,0.621824,303,-80.476619,
225,0.624600,303,-81.945985,
226,0.627376,304,-83.043500,
227,0.630152,304,-83.483867,
228,0.632928,304,-83.418321,
229,0.635704,305,-83.041279,
230,0.638480,304,-82.529259,
231,0.641256,304,-82.173111,
232,0.644032,303,-82.129593,
233,0.646808,303,-82.354379,
234,0.649584,302,-82.723724,
235,0.652360,300,-83.279519,
236,0.655136,298,-84.204717,
237,0.657912,297,-85.460524,
238,0.660688,297,-86.711696,
239,0.663464,298,-87.528855,
240,0.666240,298,-87.714371,
241,0.669016,298,-87.436342,
242,0.671792,297,-87.034140,
243,0.674568,297,-86.759583,
244,0.677344,297,-86.624976,
245,0.680120,296,-86.621753,
246,0.682896,295,-86.852392,
247,0.685672,294,-87.315799,
248,0.688448,293,-87.902798,
249,0.691224,293,-88.461481,
250,0.694000,292,-88.902818,
251,0.696776,292,-89.255418,
252,0.699552,290,-89.618107,
253,0.702328,288,-90.210484,
254,0.705104,287,-91.085174,
255,0.707880,286,-92.030119,
256,0.710656,286,-92.834350,
257,0.713432,285,-93.411192,
258,0.716208,282,-94.003792,
259,0.718984,280,-94.943609,
260,0.721760,278,-96.205750,
261,0.724536,277,-97.551623,
262,0.727312,275,-98.849334,
263,0.730088,273,-100.164620,
264,0.732864,270,-101.621854,
265,0.735640,268,-103.221066,
266,0.738416,266,-104.805499,
267,0.741192,265,-106.204589,
268,0.743968,263,-107.398757,
269,0.746744,262,-108.459007,
270,0.749520,260,-109.396763,
271,0.752296,259,-110.179077,
272,0.755072,258,-110.740975,
273,0.757848,257,-111.096426,
274,0.760624,257,-111.302102,
275,0.763400,256,-111.362401,
276,0.766176,256,-111.272422,
277,0.768952,257,-110.854187,
278,0.771728,257,-109.974529,
279,0.774504,257,-108.856323,
280,0.777280,258,-107.716979,
281,0.780056,260,-106.426188,
282,0.782832,261,-104.792370,
283,0.785608,263,-102.803259,
284,0.788384,266,-100.398021,
285,0.791160,270,-97.418323,
286,0.793936,275,-93.741252,
287,0.796712,281,-89.260768,
288,0.799488,286,-84.012250,
289,0.802264,290,-78.364711,
290,0.805040,293,-72.886045,
291,0.807816,297,-67.944424,
292,0.810592,300,-63.593535,
293,0.813368,304,-59.721177,
294,0.816144,308,-56.042326,
295,0.818920,314,-52.104195,
296,0.821696,319,-47.563359,
297,0.824472,323,-42.597741,
298,0.827248,326,-37.785794,
299,0.830024,329,-33.570907,
300,0.832800,332,-30.006968,
301,0.835576,335,-26.887458,
302,0.838352,337,-24.067523,
303,0.841128,339,-21.577721,
304,0.843904,340,-19.516332,
305,0.846680,342,-17.883158,
306,0.849456,345,-16.383142,
307,0.852232,347,-14.694402,
308,0.855008,347,-12.981816,
309,0.857784,347,-11.705291,
310,0.860560,348,-10.990959,
311,0.863336,349,-10.578638,
312,0.866112,350,-10.217016,
313,0.868888,351,-9.788127,
314,0.871664,352,-9.240620,
315,0.874440,352,-8.650367,
316,0.877216,353,-8.144973,
317,0.879992,354,-7.698180,
318,0.882768,354,-7.308884,
319,0.885544,355,-7.032857,
320,0.888320,354,-6.902695,
321,0.891096,354,-7.014242,
322,0.893872,353,-7.408225,
323,0.896648,353,-8.040776,
324,0.899424,353,-8.768912,
325,0.902200,353,-9.426510,
326,0.904976,353,-9.939083,
327,0.907752,353,-10.289991,
328,0.910528,354,-10.443847,
329,0.913304,356,-10.248426,
330,0.916080,356,-9.714639,
331,0.918856,355,-9.262830,
332,0.921632,354,-9.293445,
333,0.924408,352,-9.923783,
334,0.927184,351,-11.097097,
335,0.929960,352,-12.434275,
336,0.932736,352,-13.467331,
337,0.935512,351,-14.177516,
338,0.938288,352,-14.670323,
339,0.941064,352,-14.846903,
340,0.943840,352,-14.787350,
341,0.946616,352,-14.736585,
342,0.949392,352,-14.827202,
343,0.952168,351,-15.125880,
344,0.954944,351,-15.609884,
345,0.957720,351,-16.091113,
346,0.960496,351,-16.438787,
347,0.963272,349,-16.855760,
348,0.966048,347,-17.736027,
349,0.968824,347,-19.053370,
350,0.971600,347,-20.299516,
351,0.974376,347,-21.129623,
352,0.977152,347,-21.561793,
353,0.979928,348,-21.678880,
354,0.982704,348,-21.545062,
355,0.985480,348,-21.323991,
356,0.988256,348,-21.151596,
357,0.991032,347,-21.129190,
358,0.993808,347,-21.344163,
359,0.996584,347,-21.707794,
360,0.999360,349,-21.921723,
361,1.002136,350,-21.673504,
362,1.004912,350,-21.036519,
363,1.007688,350,-20.367889,
364,1.010464,350,-19.895340,
365,1.013240,348,-19.835935,
366,1.016016,346,-20.483128,
367,1.018792,346,-21.716556,
368,1.021568,346,-22.963101,
369,1.024344,347,-23.746575,
370,1.027120,348,-23.876992,
371,1.029896,349,-23.424842,
372,1.032672,349,-22.689010,
373,1.035448,347,-22.176993,
374,1.038224,346,-22.302825,
375,1.041000,345,-23.014386,
376,1.043776,344,-24.047398,
377,1.046552,345,-25.067800,
378,1.049328,346,-25.643918,
379,1.052104,348,-25.496707,
380,1.054880,348,-24.718184,
381,1.057656,348,-23.760704,
382,1.060432,348,-23.020837,
383,1.063208,348,-22.615200,
384,1.065984,348,-22.510913,
385,1.068760,348,-22.594929,
386,1.071536,348,-22.731383,
387,1.074312,346,-22.977953,
388,1.077088,345,-23.552619,
389,1.079864,346,-24.304294,
390,1.082640,345,-24.921388,
391,1.085416,345,-25.411344,
392,1.088192,346,-25.700050,
393,1.090968,345,-25.703496,
394,1.093744,345,-25.629799,
395,1.096520,346,-25.534269,
396,1.099296,347,-25.253287,
397,1.102072,347,-24.797709,
398,1.104848,348,-24.271802,
399,1.107624,346,-23.846099,
400,1.110400,343,-24.004476,
401,1.113176,342,-25.004097,
402,1.115952,341,-26.491124,
403,1.118728,341,-27.973419,
404,1.121504,342,-29.006717,
405,1.124280,343,-29.269781,
406,1.127056,344,-28.765415,
407,1.129832,345,-27.750625,
408,1.132608,345,-26.614651,
409,1.135384,344,-25.816850,
410,1.138160,343,-25.646949,
411,1.140936,342,-26.048774,
412,1.143712,341,-26.790968,
413,1.146488,341,-27.615032,
414,1.149264,342,-28.204772,
415,1.152040,342,-28.383606,
416,1.154816,342,-28.269855,
417,1.157592,341,-28.102953,
418,1.160368,342,-27.959488,
419,1.163144,342,-27.732554,
420,1.165920,342,-27.467314,
421,1.168696,341,-27.375370,
422,1.171472,341,-27.525832,
423,1.174248,340,-27.811551,
424,1.177024,341,-28.050037,
425,1.179800,342,-27.988411,
426,1.182576,340,-27.758035,
427,1.185352,339,-27.860220,
428,1.188128,339,-28.331536,
429,1.190904,339,-28.790785,
430,1.193680,340,-28.946872,
431,1.196456,340,-28.750117,
432,1.199232,340,-28.403114,
433,1.202008,341,-28.017215,
434,1.204784,341,-27.529233,
435,1.207560,341,-27.000905,
436,1.210336,341,-26.558239,
437,1.213112,340,-26.336752,
438,1.215888,340,-26.421498,
439,1.218664,340,-26.660683,
440,1.221440,341,-26.761382,
441,1.224216,341,-26.556673,
442,1.226992,340,-26.239065,
443,1.229768,340,-26.091897,
444,1.232544,339,-26.186125,
445,1.235320,339,-26.475223,
446,1.238096,338,-26.864696,
447,1.240872,339,-27.189846,
448,1.243648,340,-27.171451,
449,1.246424,339,-26.827547,
450,1.249200,339,-26.511608,
451,1.251976,338,-26.418245,
452,1.254752,338,-26.538640,
453,1.257528,338,-26.722490,
454,1.260304,339,-26.748400,
455,1.263080,339,-26.516689,
456,1.265856,337,-26.300366,
457,1.268632,335,-26.563055,
458,1.271408,334,-27.386460,
459,1.274184,335,-28.325618,
460,1.276960,336,-28.823981,
461,1.279736,338,-28.596407,
462,1.282512,338,-27.738297,
463,1.285288,337,-26.744400,
464,1.288064,336,-26.126846,
465,1.290840,336,-25.988912,
466,1.293616,336,-26.129874,
467,1.296392,335,-26.426322,
468,1.299168,335,-26.828302,
469,1.301944,335,-27.131910,
470,1.304720,335,-27.173427,
471,1.307496,335,-27.003607,
472,1.310272,335,-26.773401,
473,1.313048,336,-26.516577,
474,1.315824,335,-26.228052,
475,1.318600,335,-26.009180,
476,1.321376,335,-25.838531,
477,1.324152,335,-25.643208,
478,1.326928,336,-25.391622,
479,1.329704,336,-25.048823,
480,1.332480,337,-24.602435,
481,1.335256,336,-24.093432,
482,1.338032,336,-23.675296,
483,1.340808,336,-23.404377,
484,1.343584,335,-23.323294,
485,1.346360,334,-23.583380,
486,1.349136,332,-24.258509,
487,1.351912,333,-25.098760,
488,1.354688,334,-25.535410,
489,1.357464,334,-25.361151,
490,1.360240,334,-24.902201,
491,1.363016,334,-24.462736,
492,1.365792,334,-24.114921,
493,1.368568,333,-23.889751,
494,1.371344,332,-23.905808,
495,1.374120,332,-24.165058,
496,1.376896,331,-24.559537,
497,1.379672,331,-25.017791,
498,1.382448,332,-25.300804,
499,1.385224,332,-25.171899,
500,1.388000,332,-24.736028,
501,1.390776,331,-24.310498,
502,1.393552,332,-24.050409,
503,1.396328,333,-23.749121,
504,1.399104,334,-23.174437,
505,1.401880,334,-22.368454,
506,1.404656,334,-21.548571,
507,1.407432,333,-20.964734,
508,1.410208,333,-20.752418,
509,1.412984,333,-20.802073,
510,1.415760,332,-20.990092,
511,1.418536,333,-21.190031,
512,1.421312,334,-21.080820,
513,1.424088,336,-20.408903,
514,1.426864,338,-19.137877,
515,1.429640,339,-17.475367,
516,1.432416,340,-15.774672,
517,1.435192,340,-14.304814,
518,1.437968,340,-13.230323,
519,1.440744,340,-12.584478,
520,1.443520,342,-12.133003,
521,1.446296,342,-11.603223,
522,1.449072,342,-11.060309,
523,1.451848,341,-10.715798,
524,1.454624,340,-10.705436,
525,1.457400,341,-10.914779,
526,1.460176,342,-10.980011,
527,1.462952,342,-10.775448,
528,1.465728,342,-10.470788,
529,1.468504,338,-10.478357,
530,1.471280,335,-11.347130,
531,1.474056,333,-13.108729,
532,1.476832,331,-15.339056,
533,1.479608,329,-17.710222,
534,1.482384,328,-19.941447,
535,1.485160,327,-21.714642,
536,1.487936,327,-22.825998,
537,1.490712,325,-23.425362,
538,1.493488,325,-23.887916,
539,1.496264,325,-24.300763,
540,1.499040,326,-24.463886,
541,1.501816,327,-24.153710,
542,1.504592,328,-23.298719,
543,1.507368,329,-22.053845,
544,1.510144,329,-20.745997,
545,1.512920,329,-19.733362,
546,1.515696,329,-19.132514,
547,1.518472,329,-18.803323,
548,1.521248,328,-18.638330,
549,1.524024,327,-18.705445,
550,1.526800,327,-19.005524,
551,1.529576,326,-19.433657,
552,1.532352,327,-19.829985,
553,1.535128,327,-19.939728,
554,1.537904,328,-19.632444,
555,1.540680,328,-18.988403,
556,1.543456,325,-18.495908,
557,1.546232,322,-18.871607,
558,1.549008,318,-20.417317,
559,1.551784,313,-23.076161,
560,1.554560,305,-26.907320,
561,1.557336,296,-32.166522,
562,1.560112,285,-39.039306,
563,1.562888,271,-47.701710,
564,1.565664,259,-58.090097,
565,1.568440,253,-69.040174,
566,1.571216,258,-77.960078,
567,1.573992,278,-81.180310,
568,1.576768,306,-75.339035,
569,1.579544,332,-59.776559,
570,1.582320,358,-36.943569,
571,1.585096,381,-10.405779,
572,1.587872,402,16.599162,
573,1.590648,421,41.748814,
574,1.593424,437,63.787329,
575,1.596200,447,82.018767,
576,1.598976,449,95.664135,
577,1.601752,440,103.442702,
578,1.604528,423,103.797186,
579,1.607304,401,95.872396,
580,1.610080,375,80.084458,
581,1.612856,351,58.187867,
582,1.615632,332,33.334788,
583,1.618408,318,9.229404,
584,1.621184,307,-11.393753,
585,1.623960,297,-27.645651,
586,1.626736,288,-40.150062,
587,1.629512,282,-49.853693,
588,1.632288,281,-56.975388,
589,1.635064,283,-61.067400,
590,1.637840,291,-61.566421,
591,1.640616,299,-58.283844,
592,1.643392,307,-51.949938,
593,1.646168,312,-44.049504,
594,1.648944,316,-36.133112,
595,1.651720,316,-29.459329,
596,1.654496,317,-24.781510,
597,1.657272,317,-22.097418,
598,1.660048,318,-20.865821,
599,1.662824,317,-20.494255,
600,1.665600,317,-20.547767,
601,1.668376,317,-20.638671,
602,1.671152,317,-20.537530,
603,1.673928,317,-20.310447,
604,1.676704,318,-20.025927,
605,1.679480,317,-19.720400,
606,1.682256,317,-19.481432,
607,1.685032,317,-19.240112,
608,1.687808,317,-18.904819,
609,1.690584,316,-18.639364,
610,1.693360,318,-18.481421,
611,1.696136,318,-18.169182,
612,1.698912,319,-17.573066,
613,1.701688,318,-16.813843,
614,1.704464,317,-16.222845,
615,1.707240,315,-16.180779,
616,1.710016,314,-16.812358,
617,1.712792,313,-17.880839,
618,1.715568,313,-18.936555,
619,1.718344,312,-19.659825,
620,1.721120,313,-19.939628,
621,1.723896,313,-19.771736,
622,1.726672,314,-19.287084,
623,1.729448,314,-18.649254,
624,1.732224,315,-17.915638,
625,1.735000,315,-17.075652,
626,1.737776,315,-16.229039,
627,1.740552,314,-15.624947,
628,1.743328,314,-15.420481,
629,1.746104,314,-15.484414,
630,1.748880,315,-15.484632,
631,1.751656,314,-15.261131,
632,1.754432,313,-15.038532,
633,1.757208,312,-15.086602,
634,1.759984,311,-15.473058,
635,1.762760,310,-16.141736,
636,1.765536,310,-16.877753,
637,1.768312,310,-17.371414,
638,1.771088,309,-17.554640,
639,1.773864,308,-17.670796,
640,1.776640,308,-17.871119,
641,1.779416,309,-17.980099,
642,1.782192,310,-17.721394,
643,1.784968,311,-16.994855,
644,1.787744,311,-15.955700,
645,1.790520,310,-14.993932,
646,1.793296,307,-14.652040,
647,1.796072,303,-15.436946,
648,1.798848,301,-17.342455,
649,1.801624,300,-19.680739,
650,1.804400,299,-21.723742,
651,1.807176,299,-23.120919,
652,1.809952,299,-23.780954,
653,1.812728,298,-23.900531,
654,1.815504,296,-23.955827,
655,1.818280,294,-24.374525,
656,1.821056,292,-25.279362,
657,1.823832,290,-26.570043,
658,1.826608,287,-28.170326,
659,1.829384,286,-29.944803,
660,1.832160,285,-31.535547,
661,1.834936,283,-32.774623,
662,1.837712,282,-33.780190,
663,1.840488,280,-34.667165,
664,1.843264,278,-35.595198,
665,1.846040,276,-36.688213,
666,1.848816,274,-37.935296,
667,1.851592,271,-39.353681,
668,1.854368,269,-40.963681,
669,1.857144,268,-42.549599,
670,1.859920,268,-43.728029,
671,1.862696,267,-44.330912,
672,1.865472,267,-44.467567,
673,1.868248,266,-44.307221,
674,1.871024,265,-44.074042,
675,1.873800,264,-43.959769,
676,1.876576,265,-43.862889,
677,1.879352,267,-43.370105,
678,1.882128,269,-42.143691,
679,1.884904,271,-40.192228,
680,1.887680,274,-37.646281,
681,1.890456,279,-34.434385,
682,1.893232,284,-30.392629,
683,1.896008,289,-25.616386,
684,1.898784,293,-20.468885,
685,1.901560,296,-15.418129,
686,1.904336,301,-10.669923,
687,1.907112,305,-6.077835,
688,1.909888,310,-1.526896,
689,1.912664,314,2.985030,
690,1.915440,318,7.391003,
691,1.918216,322,11.656413,
692,1.920992,325,15.754061,
693,1.923768,328,19.539817,
694,1.926544,332,22.993433,
695,1.929320,337,26.392855,
696,1.932096,342,30.085449,
697,1.934872,345,34.064356,
698,1.937648,347,37.882227,
699,1.940424,349,41.102819,
700,1.943200,350,43.534449,
701,1.945976,350,45.051332,
702,1.948752,352,45.798417,
703,1.951528,353,46.266751,
704,1.954304,354,46.777467,
705,1.957080,355,47.373937,
706,1.959856,356,48.011586,
707,1.962632,357,48.609432,
708,1.965408,358,49.128565,
709,1.968184,359,49.604660,
710,1.970960,360,50.106780,
711,1.973736,359,50.511559,
712,1.976512,360,50.621595,
713,1.979288,359,50.412152,
714,1.982064,359,49.874739,
715,1.984840,358,49.053853,
716,1.987616,357,48.022285,
717,1.990392,357,46.898030,
718,1.993168,358,45.968860,
719,1.995944,358,45.393796,
720,1.998720,359,45.103207,
721,2.001496,359,45.010791,
722,2.004272,359,44.990025,
723,2.007048,358,44.832409,
724,2.009824,357,44.319184,
725,2.012600,355,43.279444,
726,2.015376,354,41.720089,
727,2.018152,353,39.912850,
728,2.020928,354,38.316149,
729,2.023704,353,37.212843,
730,2.026480,354,36.540521,
731,2.029256,354,36.191128,
732,2.032032,354,36.008983,
733,2.034808,354,35.819484,
734,2.037584,353,35.509148,
735,2.040360,352,34.930360,
736,2.043136,352,34.098427,
737,2.045912,352,33.225549,
738,2.048688,352,32.466921,
739,2.051464,352,31.863585,
740,2.054240,353,31.497013,
741,2.057016,353,31.419091,
742,2.059792,353,31.463595,
743,2.062568,352,31.342966,
744,2.065344,352,30.909275,
745,2.068120,350,30.141082,
746,2.070896,350,29.085229,
747,2.073672,351,28.097825,
748,2.076448,350,27.431851,
749,2.079224,349,26.827387,
750,2.082000,347,25.939988,
751,2.084776,345,24.600041,
752,2.087552,345,22.982703,
753,2.090328,346,21.619957,
754,2.093104,348,20.991956,
755,2.095880,348,21.115542,
756,2.098656,349,21.633984,
757,2.101432,350,22.329867,
758,2.104208,351,23.146650,
759,2.106984,350,23.827521,
760,2.109760,349,23.965164,
761,2.112536,348,23.419958,
762,2.115312,348,22.464844,
763,2.118088,347,21.439646,
764,2.120864,346,20.419992,
765,2.123640,345,19.337491,
766,2.126416,344,18.169566,
767,2.129192,344,17.014388,
768,2.131968,345,16.157657,
769,2.134744,346,15.863998,
770,2.137520,347,16.136207,
771,2.140296,347,16.710173,
772,2.143072,347,17.226090,
773,2.145848,347,17.485617,
774,2.148624,348,17.572283,
775,2.151400,348,17.647093,
776,2.154176,348,17.694860,
777,2.156952,347,17.567727,
778,2.159728,346,17.117463,
779,2.162504,346,16.392011,
780,2.165280,346,15.642674,
781,2.168056,345,14.961071,
782,2.170832,345,14.288542,
783,2.173608,344,13.620270,
784,2.176384,345,13.044645,
785,2.179160,345,12.715109,
786,2.181936,345,12.593564,
787,2.184712,344,12.438291,
788,2.187488,343,12.028442,
789,2.190264,342,11.303216,
790,2.193040,341,10.342405,
791,2.195816,340,9.235017,
792,2.198592,340,8.124015,
793,2.201368,341,7.300309,
794,2.204144,343,7.111250,
795,2.206920,344,7.660190,
796,2.209696,345,8.681423,
797,2.212472,345,9.762551,
798,2.215248,345,10.556563,
799,2.218024,344,10.852360,
800,2.220800,343,10.569289,
801,2.223576,342,9.791960,
802,2.226352,341,8.719770,
803,2.229128,340,7.524243,
804,2.231904,340,6.383373,
805,2.234680,341,5.576428,
806,2.237456,341,5.259990,
807,2.240232,340,5.194802,
808,2.243008,340,5.074864,
809,2.245784,340,4.884521,
810,2.248560,340,4.697722,
811,2.251336,339,4.440585,
812,2.254112,339,4.031329,
813,2.256888,339,3.588605,
814,2.259664,341,3.419459,
815,2.262440,342,3.780031,
816,2.265216,342,4.500671,
817,2.267992,340,5.008406,
818,2.270768,338,4.783284,
819,2.273544,338,3.878184,
820,2.276320,337,2.750215,
821,2.279096,337,1.691819,
822,2.281872,338,0.939204,
823,2.284648,339,0.740923,
824,2.287424,339,1.048289,
825,2.290200,340,1.622248,
826,2.292976,339,2.195352,
827,2.295752,339,2.477246,
828,2.298528,339,2.429459,
829,2.301304,338,2.148823,
830,2.304080,338,1.695696,
831,2.306856,337,1.170716,
832,2.309632,338,0.707823,
833,2.312408,338,0.466560,
834,2.315184,338,0.416409,
835,2.317960,339,0.496271,
836,2.320736,339,0.749933,
837,2.323512,339,1.078644,
838,2.326288,338,1.256653,
839,2.329064,337,1.065034,
840,2.331840,337,0.519435,
841,2.334616,337,-0.104135,
842,2.337392,337,-0.579216,
843,2.340168,337,-0.844784,
844,2.342944,337,-0.936997,
845,2.345720,338,-0.860818,
846,2.348496,339,-0.538743,
847,2.351272,340,0.048174,
848,2.354048,340,0.759265,
849,2.356824,340,1.371711,
850,2.359600,339,1.686765,
851,2.362376,338,1.549945,
852,2.365152,339,1.093546,
853,2.367928,339,0.683915,
854,2.370704,339,0.456303,
855,2.373480,340,0.441326,
856,2.376256,341,0.764078,
857,2.379032,341,1.350924,
858,2.381808,341,1.900152,
859,2.384584,341,2.211991,
860,2.387360,339,2.140330,
861,2.390136,337,1.470071,
862,2.392912,337,0.330838,
863,2.395688,337,-0.783738,
864,2.398464,339,-1.421365,
865,2.401240,340,-1.344647,
866,2.404016,341,-0.662232,
867,2.406792,342,0.363872,
868,2.409568,342,1.467124,
869,2.412344,340,2.179137,
870,2.415120,340,2.163327,
871,2.417896,339,1.575157,
872,2.420672,338,0.670783,
873,2.423448,338,-0.307387,
874,2.426224,338,-1.056564,
875,2.429000,338,-1.468279,
876,2.431776,338,-1.644689,
877,2.434552,337,-1.797247,
878,2.437328,336,-2.151334,
879,2.440104,336,-2.690255,
880,2.442880,336,-3.177243,
881,2.445656,336,-3.483258,
882,2.448432,337,-3.571745,
883,2.451208,339,-3.274586,
884,2.453984,339,-2.553025,
885,2.456760,338,-1.803730,
886,2.459536,338,-1.398505,
887,2.462312,338,-1.312341,
888,2.465088,338,-1.407082,
889,2.467864,338,-1.601205,
890,2.470640,338,-1.808415,
891,2.473416,337,-2.017580,
892,2.476192,338,-2.193732,
893,2.478968,338,-2.201546,
894,2.481744,337,-2.174142,
895,2.484520,336,-2.429235,
896,2.487296,336,-2.966523,
897,2.490072,336,-3.494667,
898,2.492848,336,-3.814240,
899,2.495624,336,-3.941441,
900,2.498400,336,-3.978656,
901,2.501176,336,-4.002452,
902,2.503952,336,-4.020993,
903,2.506728,336,-4.005492,
904,2.509504,336,-3.947190,
905,2.512280,336,-3.880299,
906,2.515056,337,-3.775121,
907,2.517832,339,-3.410629,
908,2.520608,340,-2.612881,
909,2.523384,340,-1.578281,
910,2.526160,340,-0.670914,
911,2.528936,342,0.073322,
912,2.531712,342,0.801893,
913,2.534488,342,1.387846,
914,2.537264,343,1.768482,
915,2.540040,344,2.183499,
916,2.542816,344,2.730998,
917,2.545592,345,3.307948,
918,2.548368,345,3.827687,
919,2.551144,344,4.098682,
920,2.553920,343,3.912107,
921,2.556696,341,3.216505,
922,2.559472,340,2.093398,
923,2.562248,339,0.766843,
924,2.565024,338,-0.571710,
925,2.567800,337,-1.855117,
926,2.570576,336,-3.042344,
927,2.573352,334,-4.179407,
928,2.576128,333,-5.357330,
929,2.578904,332,-6.542190,
930,2.581680,330,-7.759104,
931,2.584456,329,-9.095610,
932,2.587232,327,-10.512019,
933,2.590008,327,-11.843152,
934,2.592784,326,-12.882232,
935,2.595560,325,-13.668879,
936,2.598336,325,-14.329630,
937,2.601112,326,-14.723496,
938,2.603888,326,-14.702503,
939,2.606664,326,-14.386797,
940,2.609440,327,-13.900177,
941,2.612216,327,-13.286949,
942,2.614992,327,-12.719803,
943,2.617768,327,-12.342460,
944,2.620544,327,-12.129963,
945,2.623320,326,-12.067749,
946,2.626096,327,-12.090303,
947,2.628872,327,-12.010690,
948,2.631648,326,-11.901863,
949,2.634424,325,-12.040224,
950,2.637200,323,-12.578418,
951,2.639976,320,-13.647691,
952,2.642752,315,-15.509427,
953,2.645528,312,-18.261381,
954,2.648304,309,-21.526845,
955,2.651080,303,-25.082416,
956,2.653856,295,-29.331593,
957,2.656632,287,-34.679397,
958,2.659408,275,-41.354635,
959,2.662184,263,-49.654219,
960,2.664960,255,-59.199801,
961,2.667736,256,-68.135969,
962,2.670512,269,-73.289558,
963,2.673288,294,-71.128470,
964,2.676064,321,-59.654588,
965,2.678840,349,-39.721822,
966,2.681616,375,-14.177233,
967,2.684392,396,13.435239,
968,2.687168,415,39.878524,
969,2.689944,430,63.096803,
970,2.692720,440,82.017137,
971,2.695496,445,96.065929,
972,2.698272,441,104.731643,
973,2.701048,428,107.071486,
974,2.703824,407,101.995823,
975,2.706600,382,89.127885,
976,2.709376,356,69.427883,
977,2.712152,337,45.533241,
978,2.714928,321,21.127798,
979,2.717704,311,-0.605003,
980,2.720480,301,-18.003117,
981,2.723256,291,-31.252774,
982,2.726032,281,-41.693725,
983,2.728808,278,-50.166163,
984,2.731584,279,-56.224953,
985,2.734360,285,-58.925119,
986,2.737136,294,-57.628144,
987,2.739912,301,-52.599434,
988,2.742688,306,-45.301885,
989,2.745464,310,-37.554236,
990,2.748240,313,-30.655267,
991,2.751016,314,-25.329586,
992,2.753792,314,-21.881779,
993,2.756568,314,-20.114450,
994,2.759344,315,-19.350347,
995,2.762120,315,-18.909855,
996,2.764896,315,-18.553142,
997,2.767672,316,-18.227107,
998,2.770448,316,-17.848874,
999,2.773224,316,-17.444944,
1000,2.776000,315,-17.126101,
1001,2.778776,316,-16.881508,
1002,2.781552,316,-16.569551,
1003,2.784328,316,-16.226835,
1004,2.787104,317,-15.900615,
1005,2.789880,317,-15.483651,
1006,2.792656,316,-15.056996,
1007,2.795432,315,-14.862275,
1008,2.798208,315,-14.954538,
1009,2.800984,315,-15.176588,
1010,2.803760,314,-15.460746,
1011,2.806536,314,-15.799353,
1012,2.809312,314,-16.020740,
1013,2.812088,315,-15.910823,
1014,2.814864,315,-15.456939,
1015,2.817640,315,-14.907865,
1016,2.820416,315,-14.488924,
1017,2.823192,314,-14.282391,
1018,2.825968,314,-14.270493,
1019,2.828744,314,-14.288816,
1020,2.831520,315,-14.153484,
1021,2.834296,315,-13.826449,
1022,2.837072,314,-13.523207,
1023,2.839848,313,-13.500572,
1024,2.842624,312,-13.782643,
1025,2.845400,312,-14.197679,
1026,2.848176,311,-14.616635,
1027,2.850952,312,-14.970073,
1028,2.853728,311,-15.175309,
1029,2.856504,310,-15.344256,
1030,2.859280,308,-15.698238,
1031,2.862056,307,-16.331839,
1032,2.864832,306,-17.173728,
1033,2.867608,305,-18.120097,
1034,2.870384,305,-19.024759,
1035,2.873160,304,-19.702335,
1036,2.875936,304,-20.081934,
1037,2.878712,304,-20.140935,
1038,2.881488,304,-19.952809,
1039,2.884264,303,-19.768840,
1040,2.887040,303,-19.766851,
1041,2.889816,302,-19.898637,
1042,2.892592,301,-20.120023,
1043,2.895368,301,-20.379438,
1044,2.898144,299,-20.698893,
1045,2.900920,297,-21.356708,
1046,2.903696,295,-22.502346,
1047,2.906472,293,-23.980184,
1048,2.909248,292,-25.495453,
1049,2.912024,291,-26.768821,
1050,2.914800,289,-27.815780,
1051,2.917576,288,-28.825301,
1052,2.920352,286,-29.864562,
1053,2.923128,283,-31.053657,
1054,2.925904,280,-32.580602,
1055,2.928680,278,-34.411693,
1056,2.931456,275,-36.403975,
1057,2.934232,273,-38.486364,
1058,2.937008,271,-40.505931,
1059,2.939784,269,-42.287332,
1060,2.942560,267,-43.790903,
1061,2.945336,266,-45.012389,
1062,2.948112,264,-46.004639,
1063,2.950888,263,-46.895542,
1064,2.953664,261,-47.751944,
1065,2.956440,260,-48.558354,
1066,2.959216,259,-49.205822,
1067,2.961992,259,-49.555825,
1068,2.964768,258,-49.617457,
1069,2.967544,258,-49.516745,
1070,2.970320,257,-49.336522,
1071,2.973096,258,-49.009387,
1072,2.975872,258,-48.373493,
1073,2.978648,260,-47.329590,
1074,2.981424,262,-45.783150,
1075,2.984200,265,-43.655695,
1076,2.986976,268,-40.935250,
1077,2.989752,271,-37.691045,
1078,2.992528,276,-33.942801,
1079,2.995304,281,-29.579914,
1080,2.998080,286,-24.665092,
1081,3.000856,292,-19.362336,
1082,3.003632,297,-13.774373,
1083,3.006408,302,-8.081469,
1084,3.009184,305,-2.613436,
1085,3.011960,309,2.303200,
1086,3.014736,311,6.498123,
1087,3.017512,315,10.009847,
1088,3.020288,318,13.145095,
1089,3.023064,322,16.244470,
1090,3.025840,325,19.466294,
1091,3.028616,328,22.735837,
1092,3.031392,332,25.963340,
1093,3.034168,336,29.239770,
1094,3.036944,339,32.570097,
1095,3.039720,342,35.804226,
1096,3.042496,344,38.784054,
1097,3.045272,345,41.286884,
1098,3.048048,347,43.179672,
1099,3.050824,348,44.557931,
1100,3.053600,349,45.528029,
1101,3.056376,350,46.209063,
1102,3.059152,350,46.696725,
1103,3.061928,351,47.016851,
1104,3.064704,352,47.276723,
1105,3.067480,353,47.569280,
1106,3.070256,353,47.829522,
1107,3.073032,354,47.998382,
1108,3.075808,354,48.123609,
1109,3.078584,354,48.164129,
1110,3.081360,353,47.941273,
1111,3.084136,354,47.432013,
1112,3.086912,353,46.786645,
1113,3.089688,353,46.055783,
1114,3.092464,354,45.405073,
1115,3.095240,355,45.115512,
1116,3.098016,355,45.148358,
1117,3.100792,354,45.121034,
1118,3.103568,354,44.753763,
1119,3.106344,354,44.153708,
1120,3.109120,353,43.455342,
1121,3.111896,351,42.505315,
1122,3.114672,351,41.232564,
1123,3.117448,351,39.929735,
1124,3.120224,351,38.868482,
1125,3.123000,352,38.171673,
1126,3.125776,353,37.953540,
1127,3.128552,354,38.192749,
1128,3.131328,355,38.721013,
1129,3.134104,356,39.358822,
1130,3.136880,355,39.836488,
1131,3.139656,354,39.804517,
1132,3.142432,350,38.927580,
1133,3.145208,348,37.046245,
1134,3.147984,346,34.480760,
1135,3.150760,346,31.850269,
1136,3.153536,347,29.788642,
1137,3.156312,348,28.695804,
1138,3.159088,346,28.312076,
1139,3.161864,344,27.886867,
1140,3.164640,343,26.986933,
1141,3.167416,343,25.776650,
1142,3.170192,343,24.595090,
1143,3.172968,345,23.799927,
1144,3.175744,345,23.623260,
1145,3.178520,346,23.942966,
1146,3.181296,346,24.484417,
1147,3.184072,346,24.937776,
1148,3.186848,346,25.069364,
1149,3.189624,347,24.957502,
1150,3.192400,347,24.833391,
1151,3.195176,347,24.770009,
1152,3.197952,346,24.637642,
1153,3.200728,345,24.214482,
1154,3.203504,345,23.452162,
1155,3.206280,345,22.573859,
1156,3.209056,346,21.888935,
1157,3.211832,347,21.665151,
1158,3.214608,348,21.962412,
1159,3.217384,348,22.535753,
1160,3.220160,348,23.001479,
1161,3.222936,348,23.145589,
1162,3.225712,347,22.927960,
1163,3.228488,347,22.409463,
1164,3.231264,346,21.730452,
1165,3.234040,346,20.978223,
1166,3.236816,346,20.251217,
1167,3.239592,346,19.638657,
1168,3.242368,346,19.158168,
1169,3.245144,345,18.738138,
1170,3.247920,345,18.278597,
1171,3.250696,345,17.815409,
1172,3.253472,345,17.398883,
1173,3.256248,346,17.087442,
1174,3.259024,345,16.889549,
1175,3.261800,344,16.585320,
1176,3.264576,342,15.923816,
1177,3.267352,343,14.985621,
1178,3.270128,342,14.069493,
1179,3.272904,342,13.246324,
1180,3.275680,341,12.462548,
1181,3.278456,341,11.750040,
1182,3.281232,340,11.136068,
1183,3.284008,340,10.576514,
1184,3.286784,339,9.980199,
1185,3.289560,338,9.215227,
1186,3.292336,337,8.235943,
1187,3.295112,337,7.230521,
1188,3.297888,337,6.464112,
1189,3.300664,338,6.090813,
1190,3.303440,338,6.071412,
1191,3.306216,337,6.103806,
1192,3.308992,336,5.859614,
1193,3.311768,335,5.277984,
1194,3.314544,333,4.379035,
1195,3.317320,332,3.157005,
1196,3.320096,331,1.743522,
1197,3.322872,331,0.394919,
1198,3.325648,332,-0.539936,
1199,3.328424,333,-0.775048,
1200,3.331200,333,-0.405382,
1201,3.333976,332,0.084410,
1202,3.336752,329,0.047130,
1203,3.339528,326,-0.996807,
1204,3.342304,324,-2.967861,
1205,3.345080,324,-5.205797,
1206,3.347856,325,-6.905763,
1207,3.350632,327,-7.557882,
1208,3.353408,326,-7.304781,
1209,3.356184,323,-7.006478,
1210,3.358960,321,-7.430726,
1211,3.361736,320,-8.556725,
1212,3.364512,319,-9.967712,
1213,3.367288,318,-11.385680,
1214,3.370064,318,-12.616024,
1215,3.372840,318,-13.427478,
1216,3.375616,319,-13.655041,
1217,3.378392,320,-13.267981,
1218,3.381168,320,-12.502257,
1219,3.383944,320,-11.768892,
1220,3.386720,319,-11.362444,
1221,3.389496,319,-11.321780,
1222,3.392272,318,-11.510280,
1223,3.395048,316,-11.970678,
1224,3.397824,315,-12.829023,
1225,3.400600,314,-13.957057,
1226,3.403376,314,-15.055881,
1227,3.406152,314,-15.826456,
1228,3.408928,314,-16.146242,
1229,3.411704,313,-16.186327,
1230,3.414480,312,-16.281262,
1231,3.417256,311,-16.644938,
1232,3.420032,311,-17.199743,
1233,3.422808,310,-17.758446,
1234,3.425584,310,-18.222210,
1235,3.428360,311,-18.416886,
1236,3.431136,311,-18.222454,
1237,3.433912,311,-17.818306,
1238,3.436688,311,-17.418673,
1239,3.439464,311,-17.084493,
1240,3.442240,310,-16.878608,
1241,3.445016,311,-16.784979,
1242,3.447792,312,-16.549909,
1243,3.450568,313,-15.991498,
1244,3.453344,314,-15.143971,
1245,3.456120,314,-14.163401,
1246,3.458896,314,-13.281185,
1247,3.461672,313,-12.712077,
1248,3.464448,311,-12.702119,
1249,3.467224,311,-13.273757,
1250,3.470000,311,-14.021982,
1251,3.472776,311,-14.562309,
1252,3.475552,310,-14.861858,
1253,3.478328,309,-15.119507,
1254,3.481104,309,-15.431593,
1255,3.483880,310,-15.615871,
1256,3.486656,312,-15.360883,
1257,3.489432,313,-14.528123,
1258,3.492208,312,-13.443962,
1259,3.494984,311,-12.660480,
1260,3.497760,312,-12.292415,
1261,3.500536,313,-11.995507,
1262,3.503312,314,-11.521619,
1263,3.506088,315,-10.833452,
1264,3.508864,315,-10.001463,
1265,3.511640,315,-9.193361,
1266,3.514416,314,-8.622585,
1267,3.517192,313,-8.513925,
1268,3.519968,312,-8.947115,
1269,3.522744,311,-9.783781,
1270,3.525520,310,-10.785309,
1271,3.528296,311,-11.590335,
1272,3.531072,312,-11.807813,
1273,3.533848,313,-11.374816,
1274,3.536624,313,-10.602842,
1275,3.539400,313,-9.865768,
1276,3.542176,312,-9.394848,
1277,3.544952,312,-9.228375,
1278,3.547728,312,-9.222800,
1279,3.550504,312,-9.256296,
1280,3.553280,311,-9.390701,
1281,3.556056,310,-9.750363,
1282,3.558832,309,-10.323475,
1283,3.561608,309,-10.919765,
1284,3.564384,307,-11.484352,
1285,3.567160,306,-12.219311,
1286,3.569936,305,-13.174103,
1287,3.572712,303,-14.269815,
1288,3.575488,302,-15.451744,
1289,3.578264,303,-16.404138,
1290,3.581040,305,-16.639788,
1291,3.583816,307,-15.948870,
1292,3.586592,308,-14.569301,
1293,3.589368,308,-13.002382,
1294,3.592144,307,-11.745934,
1295,3.594920,306,-11.107299,
1296,3.597696,305,-11.138237,
1297,3.600472,306,-11.566201,
1298,3.603248,306,-11.956340,
1299,3.606024,305,-12.184410,
1300,3.608800,304,-12.401877,
1301,3.611576,303,-12.706896,
1302,3.614352,303,-13.079375,
1303,3.617128,304,-13.346612,
1304,3.619904,305,-13.285765,
1305,3.622680,307,-12.713116,
1306,3.625456,307,-11.629925,
1307,3.628232,307,-10.385323,
1308,3.631008,310,-9.128489,
1309,3.633784,312,-7.633465,
1310,3.636560,313,-5.958022,
1311,3.639336,314,-4.375487,
1312,3.642112,314,-3.013053,
1313,3.644888,312,-2.105788,
1314,3.647664,312,-1.880082,
1315,3.650440,313,-2.081003,
1316,3.653216,312,-2.392497,
1317,3.655992,305,-3.315360,
1318,3.658768,298,-5.797209,
1319,3.661544,295,-9.761943,
1320,3.664320,297,-13.760276,
1321,3.667096,299,-16.308083,
1322,3.669872,300,-17.070591,
1323,3.672648,299,-16.679667,
1324,3.675424,296,-16.073507,
1325,3.678200,295,-15.894566,
1326,3.680976,293,-16.300057,
1327,3.683752,292,-17.311011,
1328,3.686528,290,-18.837156,
1329,3.689304,289,-20.548446,
1330,3.692080,288,-21.956731,
1331,3.694856,288,-22.718882,
1332,3.697632,288,-22.872289,
1333,3.700408,289,-22.675614,
1334,3.703184,290,-22.269366,
1335,3.705960,290,-21.657482,
1336,3.708736,290,-20.861205,
1337,3.711512,290,-19.939133,
1338,3.714288,289,-19.146898,
1339,3.717064,287,-18.972185,
1340,3.719840,286,-19.641508,
1341,3.722616,286,-20.710095,
1342,3.725392,284,-21.624683,
1343,3.728168,281,-22.453185,
1344,3.730944,278,-23.639626,
1345,3.733720,273,-25.627670,
1346,3.736496,269,-28.637294,
1347,3.739272,268,-32.110211,
1348,3.742048,265,-35.146117,
1349,3.744824,259,-37.769449,
1350,3.747600,250,-41.007450,
1351,3.750376,240,-45.922337,
1352,3.753152,226,-53.134632,
1353,3.755928,214,-62.642035,
1354,3.758704,208,-73.130566,
1355,3.761480,210,-82.008635,
1356,3.764256,226,-86.039695,
1357,3.767032,252,-82.046700,
1358,3.769808,282,-68.457665,
1359,3.772584,313,-46.178571,
1360,3.775360,339,-18.131160,
1361,3.778136,363,11.878830,
1362,3.780912,379,40.264239,
1363,3.783688,391,64.175909,
1364,3.786464,398,82.117622,
1365,3.789241,401,94.000786,
1366,3.792017,395,100.106286,
1367,3.794793,382,100.196666,
1368,3.797569,363,93.797660,
1369,3.800345,341,80.956000,
1370,3.803121,318,62.642070,
1371,3.805897,298,40.868269,
1372,3.808673,280,18.226075,
1373,3.811449,267,-2.904796,
1374,3.814225,256,-20.927330,
1375,3.817001,246,-35.459455,
1376,3.819777,240,-46.857910,
1377,3.822553,238,-55.184241,
1378,3.825329,241,-60.009728,
1379,3.828105,249,-60.731645,
1380,3.830881,259,-57.111513,
1381,3.833657,270,-49.726094,
1382,3.836433,278,-39.960997,
1383,3.839209,281,-29.864685,
1384,3.841985,282,-21.444681,
1385,3.844761,282,-15.713476,
1386,3.847537,280,-12.760916,
1387,3.850313,281,-12.012472,
1388,3.853089,282,-12.285945,
1389,3.855865,283,-12.518383,
1390,3.858641,283,-12.289089,
1391,3.861417,283,-11.678969,
1392,3.864193,284,-10.883980,
1393,3.866969,286,-9.914788,
1394,3.869745,287,-8.748918,
1395,3.872521,286,-7.637043,
1396,3.875297,286,-6.855321,
1397,3.878073,285,-6.411095,
1398,3.880849,285,-6.250309,
1399,3.883625,287,-6.151150,
1400,3.886401,288,-5.775624,
1401,3.889177,287,-5.194242,
1402,3.891953,288,-4.603168,
1403,3.894729,288,-3.921684,
1404,3.897505,288,-3.204347,
1405,3.900281,287,-2.771236,
1406,3.903057,287,-2.805679,
1407,3.905833,286,-3.177940,
1408,3.908609,286,-3.611705,
1409,3.911385,285,-3.912794,
1410,3.914161,285,-4.095270,
1411,3.916937,284,-4.312919,
1412,3.919713,284,-4.676416,
1413,3.922489,285,-4.980898,
1414,3.925265,286,-4.831290,
1415,3.928041,287,-4.086116,
1416,3.930817,288,-2.918914,
1417,3.933593,287,-1.778434,
1418,3.936369,287,-1.114870,
1419,3.939145,287,-0.915922,
1420,3.941921,286,-0.954109,
1421,3.944697,285,-1.179912,
1422,3.947473,285,-1.541978,
1423,3.950249,285,-1.894556,
1424,3.953025,287,-1.999417,
1425,3.955801,287,-1.664769,
1426,3.958577,288,-0.960881,
1427,3.961353,288,-0.055789,
1428,3.964129,288,0.822418,
1429,3.966905,286,1.285262,
1430,3.969681,284,0.952959,
1431,3.972457,283,-0.123473,
1432,3.975233,284,-1.313360,
1433,3.978009,283,-2.069696,
1434,3.980785,282,-2.492063,
1435,3.983561,282,-2.840051,
1436,3.986337,282,-3.106331,
1437,3.989113,279,-3.461299,
1438,3.991889,278,-4.209241,
1439,3.994665,279,-5.071871,
1440,3.997441,279,-5.537319,
1441,4.000217,278,-5.664688,
1442,4.002993,278,-5.754214,
1443,4.005769,277,-5.897648,
1444,4.008545,276,-6.146231,
1445,4.011321,275,-6.551086,
1446,4.014097,276,-6.957268,
1447,4.016873,274,-7.273820,
1448,4.019649,272,-7.814464,
1449,4.022425,271,-8.736592,
1450,4.025201,270,-9.774349,
1451,4.027977,268,-10.790047,
1452,4.030753,266,-11.931490,
1453,4.033529,262,-13.476540,
1454,4.036305,259,-15.621417,
1455,4.039081,256,-18.204527,
1456,4.041857,255,-20.760318,
1457,4.044633,253,-22.895293,
1458,4.047409,253,-24.464589,
1459,4.050185,254,-25.289436,
1460,4.052961,253,-25.360742,
1461,4.055737,253,-25.030798,
1462,4.058513,254,-24.459047,
1463,4.061289,254,-23.649444,
1464,4.064065,255,-22.726319,
1465,4.066841,255,-21.796037,
1466,4.069617,256,-20.881281,
1467,4.072393,258,-19.792315,
1468,4.075169,261,-18.191219,
1469,4.077945,263,-15.989412,
1470,4.080721,267,-13.308362,
1471,4.083497,272,-10.052218,
1472,4.086273,276,-6.124949,
1473,4.089049,281,-1.686226,
1474,4.091825,286,3.117398,
1475,4.094601,291,8.155201,
1476,4.097377,297,13.327579,
1477,4.100153,303,18.673235,
1478,4.102929,309,24.224343,
1479,4.105705,313,29.785048,
1480,4.108481,317,34.969160,
1481,4.111257,320,39.486784,
1482,4.114033,324,43.305969,
1483,4.116809,328,46.664733,
1484,4.119585,332,49.863807,
1485,4.122361,335,53.012416,
1486,4.125137,338,56.038550,
1487,4.127913,341,58.867880,
1488,4.130689,343,61.408410,
1489,4.133465,346,63.587115,
1490,4.136241,348,65.475367,
1491,4.139017,349,67.060845,
1492,4.141793,350,68.235919,
1493,4.144569,352,69.092814,111.70
1494,4.147345,353,69.802089,111.70
1495,4.150121,353,70.269692,111.70
1496,4.152897,354,70.375621,111.70
1497,4.155673,355,70.304663,111.70
1498,4.158449,356,70.294975,111.70
1499,4.161225,355,70.259271,111.70
1500,4.164001,356,69.985897,111.70
1501,4.166777,358,69.670911,111.70
1502,4.169553,359,69.623300,111.70
1503,4.172329,360,69.819697,111.70
1504,4.175105,359,69.981257,111.70
1505,4.177881,356,69.567250,111.70
1506,4.180657,354,68.148835,111.70
1507,4.183433,354,65.993803,111.70
1508,4.186209,356,63.943628,111.70
1509,4.188985,357,62.677740,111.70
1510,4.191761,359,62.338727,111.70
1511,4.194537,360,62.749336,111.70
1512,4.197313,361,63.535689,111.70
1513,4.200089,361,64.227747,111.70
1514,4.202865,361,64.457055,111.70
1515,4.205641,360,64.058646,111.70
1516,4.208417,360,63.134240,111.70
1517,4.211193,359,61.944674,111.70
1518,4.213969,357,60.531400,111.70
1519,4.216745,357,58.870221,111.70
1520,4.219521,359,57.372744,111.70
1521,4.222297,361,56.589428,111.70
1522,4.225073,362,56.611888,111.70
1523,4.227849,363,57.128110,111.70
1524,4.230625,365,57.898400,111.70
1525,4.233401,364,58.637793,111.70
1526,4.236177,363,58.788999,111.70
1527,4.238953,362,58.061644,111.70
1528,4.241729,360,56.574812,111.70
1529,4.244505,359,54.593003,111.70
1530,4.247281,359,52.560150,111.70
1531,4.250057,358,50.793498,111.70
1532,4.252833,358,49.284991,111.70
1533,4.255609,359,48.093404,111.70
1534,4.258385,360,47.404949,111.70
1535,4.261161,361,47.253055,111.70
1536,4.263937,361,47.422597,111.70
1537,4.266713,360,47.477156,111.70
1538,4.269489,359,47.016922,111.70
1539,4.272265,357,45.877383,111.70
1540,4.275041,354,43.992813,111.70
1541,4.277817,354,41.612406,111.70
1542,4.280593,355,39.475198,111.70
1543,4.283369,357,38.232219,111.70
1544,4.286145,358,37.975173,111.70
1545,4.288921,360,38.431403,111.70
1546,4.291697,362,39.383538,111.70
1547,4.294473,362,40.538135,111.70
1548,4.297249,361,41.321483,111.70
1549,4.300025,358,41.136456,111.70
1550,4.302801,357,39.804433,111.70
1551,4.305577,356,37.771833,111.70
1552,4.308353,356,35.677979,111.70
1553,4.311129,354,33.811893,111.70
1554,4.313905,355,32.237687,111.70
1555,4.316681,356,31.202759,111.70
1556,4.319457,358,30.917220,111.70
1557,4.322233,359,31.278591,111.70
1558,4.325009,359,31.896392,111.70
1559,4.327785,360,32.419113,111.70
1560,4.330561,359,32.684975,111.70
1561,4.333337,358,32.462568,111.70
1562,4.336113,357,31.628406,111.70
1563,4.338889,357,30.387092,111.70
1564,4.341665,358,29.188511,111.70
1565,4.344441,357,28.298834,111.70
1566,4.347217,357,27.596752,111.70
1567,4.349993,355,26.830050,111.70
1568,4.352769,355,25.824964,111.70
1569,4.355545,355,24.716213,111.70
1570,4.358321,356,23.808371,111.70
1571,4.361097,356,23.251538,111.70
1572,4.363873,357,23.031682,111.70
1573,4.366649,358,23.137066,111.70
1574,4.369425,359,23.519118,111.70
1575,4.372201,359,23.953526,111.70
1576,4.374977,358,24.086518,111.70
1577,4.377753,359,23.822486,111.70
1578,4.380529,359,23.438023,111.70
1579,4.383305,359,23.082580,111.70
1580,4.386081,359,22.707711,111.70
1581,4.388857,359,22.279676,111.70
1582,4.391633,358,21.720455,111.70
1583,4.394409,356,20.829215,111.70
1584,4.397185,356,19.585715,111.70
1585,4.399961,356,18.331994,111.70
1586,4.402737,356,17.330991,111.70
1587,4.405513,357,16.658365,111.70
1588,4.408289,357,16.325827,111.70
1589,4.411065,356,16.108115,111.70
1590,4.413841,356,15.758130,111.70
1591,4.416617,356,15.297149,111.70
1592,4.419393,357,14.884343,111.70
1593,4.422169,355,14.454111,111.70
1594,4.424945,354,13.690965,111.70
1595,4.427721,353,12.554750,111.70
1596,4.430497,354,11.412075,111.70
1597,4.433273,354,10.613515,111.70
1598,4.436049,354,10.137009,111.70
1599,4.438825,355,9.859501,111.70
1600,4.441601,356,9.859240,111.70
1601,4.444377,355,10.042212,111.70
1602,4.447153,353,9.942911,111.70
1603,4.449929,351,9.144864,111.70
1604,4.452705,352,7.826851,111.70
1605,4.455481,352,6.578169,111.70
1606,4.458257,352,5.687874,111.70
1607,4.461033,351,5.052421,111.70
1608,4.463809,351,4.527909,111.70
1609,4.466585,350,4.022278,111.70
1610,4.469361,351,3.517051,111.70
1611,4.472137,351,3.108203,111.70
1612,4.474913,353,2.959626,111.70
1613,4.477689,354,3.261668,111.70
1614,4.480465,354,3.919636,111.70
1615,4.483241,354,4.556175,111.70
1616,4.486017,354,4.909366,111.70
1617,4.488793,351,4.678527,111.70
1618,4.491569,349,3.538512,111.70
1619,4.494345,348,1.704731,111.70
1620,4.497121,347,-0.238518,111.70
1621,4.499897,348,-1.799934,111.70
1622,4.502673,349,-2.640691,111.70
1623,4.505449,349,-2.814867,111.70
1624,4.508225,349,-2.693772,111.70
1625,4.511001,349,-2.537627,111.70
1626,4.513777,348,-2.502229,111.70
1627,4.516553,347,-2.783819,111.70
1628,4.519329,348,-3.328559,111.70
1629,4.522105,349,-3.757354,111.70
1630,4.524881,350,-3.796297,111.70
1631,4.527657,348,-3.643662,111.70
1632,4.530433,347,-3.770798,111.70
1633,4.533209,346,-4.345968,111.70
1634,4.535985,347,-5.119925,111.70
1635,4.538761,347,-5.767437,111.70
1636,4.541537,348,-6.126159,111.70
1637,4.544313,347,-6.230848,111.70
1638,4.547089,347,-6.254846,111.70
1639,4.549865,347,-6.284887,111.70
1640,4.552641,346,-6.425159,111.70
1641,4.555417,344,-6.988011,111.70
1642,4.558193,341,-8.264251,111.70
1643,4.560969,339,-10.214272,111.70
1644,4.563745,340,-12.227458,111.70
1645,4.566521,342,-13.442499,111.70
1646,4.569297,344,-13.474040,111.70
1647,4.572073,345,-12.599414,111.70
1648,4.574849,345,-11.405313,111.70
1649,4.577625,345,-10.362592,111.70
1650,4.580401,344,-9.717368,111.70
1651,4.583177,342,-9.720907,111.70
1652,4.585953,343,-10.353070,111.70
1653,4.588729,344,-11.065283,111.70
1654,4.591505,344,-11.432164,111.70
1655,4.594281,343,-11.541167,111.70
1656,4.597057,341,-11.749525,111.70
1657,4.599833,340,-12.339909,111.70
1658,4.602609,341,-13.160396,111.70
1659,4.605385,341,-13.847768,111.70
1660,4.608161,342,-14.209106,111.70
1661,4.610937,342,-14.169298,111.70
1662,4.613713,343,-13.739336,111.70
1663,4.616489,341,-13.217997,111.70
1664,4.619265,341,-13.078228,111.70
1665,4.622041,341,-13.383416,111.70
1666,4.624817,342,-13.779462,111.70
1667,4.627593,342,-13.942537,111.70
1668,4.630369,343,-13.738987,111.70
1669,4.633145,341,-13.383252,111.70
1670,4.635921,340,-13.387436,111.70
1671,4.638697,339,-13.985176,111.70
1672,4.641473,340,-14.856811,111.70
1673,4.644249,340,-15.505412,111.70
1674,4.647025,339,-15.817088,111.70
1675,4.649801,338,-16.057946,111.70
1676,4.652577,339,-16.311838,111.70
1677,4.655353,338,-16.525823,111.70
1678,4.658129,339,-16.728148,111.70
1679,4.660905,339,-16.812800,111.70
1680,4.663681,340,-16.623674,111.70
1681,4.666457,340,-16.154467,111.70
1682,4.669233,340,-15.607029,111.70
1683,4.672009,341,-15.152547,111.70
1684,4.674785,343,-14.630437,111.70
1685,4.677561,344,-13.821237,111.70
1686,4.680337,344,-12.825465,111.70
1687,4.683113,343,-12.007682,111.70
1688,4.685889,342,-11.701992,111.70
1689,4.688665,339,-12.172915,111.70
1690,4.691441,338,-13.479058,111.70
1691,4.694217,337,-15.207356,111.70
1692,4.696993,338,-16.697080,111.70
1693,4.699769,337,-17.568890,111.70
1694,4.702545,337,-17.949359,111.70
1695,4.705321,338,-17.999740,111.70
1696,4.708097,337,-17.848355,111.70
1697,4.710873,336,-17.844285,111.70
1698,4.713649,336,-18.108718,111.70
1699,4.716425,337,-18.330956,111.70
1700,4.719201,338,-18.182915,111.70
1701,4.721977,339,-17.622962,111.70
1702,4.724753,340,-16.793896,111.70
1703,4.727529,339,-15.975406,111.70
1704,4.730305,340,-15.383155,111.70
1705,4.733081,342,-14.772866,111.70
1706,4.735857,344,-13.779399,111.70
1707,4.738633,345,-12.439272,111.70
1708,4.741409,346,-11.046344,111.70
1709,4.744185,346,-9.848298,111.70
1710,4.746961,347,-8.912156,111.70
1711,4.749737,348,-8.103175,111.70
1712,4.752513,350,-7.224143,111.70
1713,4.755289,351,-6.196496,111.70
1714,4.758065,351,-5.194938,111.70
1715,4.760841,350,-4.537354,111.70
1716,4.763617,350,-4.340539,111.70
1717,4.766393,349,-4.511176,111.70
1718,4.769169,349,-4.958837,111.70
1719,4.771945,347,-5.689370,111.70
1720,4.774721,345,-6.833292,111.70
1721,4.777497,342,-8.472146,111.70
1722,4.780273,341,-10.423454,111.70
1723,4.783049,339,-12.376496,111.70
1724,4.785825,338,-14.197584,111.70
1725,4.788601,335,-15.992615,111.70
1726,4.791377,332,-18.006841,111.70
1727,4.794153,329,-20.337735,111.70
1728,4.796929,328,-22.718191,111.70
1729,4.799705,327,-24.751231,111.70
1730,4.802481,326,-26.310175,111.70
1731,4.805257,326,-27.443419,111.70
1732,4.808033,327,-28.019537,111.70
1733,4.810809,328,-27.857581,111.70
1734,4.813585,330,-26.940694,111.70
1735,4.816361,330,-25.544646,111.70
1736,4.819137,330,-24.224904,111.70
1737,4.821913,331,-23.269224,111.70
1738,4.824689,331,-22.563446,111.70
1739,4.827465,329,-22.171511,111.70
1740,4.830241,327,-22.383529,111.70
1741,4.833017,326,-23.217701,111.70
1742,4.835793,326,-24.303378,111.70
1743,4.838569,325,-25.298311,111.70
1744,4.841345,324,-26.151446,111.70
1745,4.844121,320,-27.127657,111.70
1746,4.846897,315,-28.778993,111.70
1747,4.849673,312,-31.343936,111.70
1748,4.852449,310,-34.379124,111.70
1749,4.855225,304,-37.624088,111.70
1750,4.858001,298,-41.423681,111.70
1751,4.860777,289,-46.161969,111.70
1752,4.863553,278,-52.215293,111.70
1753,4.866329,267,-59.854215,111.70
1754,4.869105,262,-68.442158,111.70
1755,4.871881,260,-76.338057,111.70
1756,4.874657,271,-81.176555,111.70
1757,4.877433,293,-79.824010,111.70
1758,4.880209,318,-70.024701,111.70
1759,4.882985,343,-52.280317,111.70
1760,4.885761,367,-29.203991,111.70
1761,4.888537,390,-3.807723,111.70
1762,4.891313,410,21.441998,111.70
1763,4.894089,425,44.602373,111.70
1764,4.896865,438,64.343731,111.70
1765,4.899641,444,79.944322,111.70
1766,4.902417,442,90.532835,83.77
1767,4.905193,431,94.847363,83.77
1768,4.907969,411,91.658982,83.77
1769,4.910745,385,80.309942,83.77
1770,4.913521,359,61.515728,83.77
1771,4.916297,337,37.776434,83.77
1772,4.919073,321,12.740159,83.77
1773,4.921849,308,-10.236435,83.77
1774,4.924625,298,-29.229392,83.77
1775,4.927401,287,-43.991612,83.77
1776,4.930177,278,-55.424651,83.77
1777,4.932953,273,-64.360890,83.77
1778,4.935729,274,-70.721832,83.77
1779,4.938505,280,-73.722911,83.77
1780,4.941281,290,-72.561340,83.77
1781,4.944057,300,-67.145536,83.77
1782,4.946833,308,-58.537639,83.77
1783,4.949609,313,-48.690670,83.77
1784,4.952385,315,-39.697457,83.77
1785,4.955161,316,-33.000887,83.77
1786,4.957937,317,-28.889308,83.77
1787,4.960713,319,-26.632024,83.77
1788,4.963489,320,-25.212444,83.77
1789,4.966265,321,-24.011320,83.77
1790,4.969041,320,-22.982426,83.77
1791,4.971817,319,-22.432301,83.77
1792,4.974593,318,-22.526195,83.77
1793,4.977369,318,-23.031214,83.77
1794,4.980145,318,-23.521317,83.77
1795,4.982921,318,-23.722437,83.77
1796,4.985697,320,-23.473441,83.77
1797,4.988473,319,-22.822680,83.77
1798,4.991249,319,-22.182676,83.77
1799,4.994025,319,-21.769447,83.77
1800,4.996801,320,-21.398830,83.77
1801,4.999577,319,-20.970075,83.77
1802,5.002353,319,-20.634847,83.77
1803,5.005129,319,-20.451602,83.77
1804,5.007905,318,-20.413950,83.77
1805,5.010681,318,-20.540373,83.77
1806,5.013457,319,-20.599831,83.77
1807,5.016233,320,-20.278381,83.77
1808,5.019009,319,-19.669732,83.77
1809,5.021785,318,-19.230439,83.77
1810,5.024561,318,-19.160618,83.77
1811,5.027337,319,-19.180241,83.77
1812,5.030113,320,-18.920705,83.77
1813,5.032889,321,-18.254942,83.77
1814,5.035665,322,-17.261655,83.77
1815,5.038441,321,-16.225649,83.77
1816,5.041217,319,-15.653577,83.77
1817,5.043993,317,-15.901477,83.77
1818,5.046769,316,-16.854785,83.77
1819,5.049545,315,-18.108767,83.77
1820,5.052321,316,-19.188065,83.77
1821,5.055097,316,-19.719154,83.77
1822,5.057873,316,-19.705617,83.77
1823,5.060649,315,-19.454261,83.77
1824,5.063425,315,-19.236803,83.77
1825,5.066201,315,-19.096249,83.77
1826,5.068977,316,-18.899767,83.77
1827,5.071753,316,-18.540708,83.77
1828,5.074529,316,-18.078793,83.77
1829,5.077305,315,-17.689234,83.77
1830,5.080081,314,-17.564380,83.77
1831,5.082857,313,-17.801040,83.77
1832,5.085633,313,-18.282625,83.77
1833,5.088409,312,-18.821088,83.77
1834,5.091185,311,-19.374588,83.77
1835,5.093961,310,-19.952714,83.77
1836,5.096737,310,-20.454812,83.77
1837,5.099513,310,-20.740698,83.77
1838,5.102289,309,-20.870871,83.77
1839,5.105065,308,-21.082142,83.77
1840,5.107841,306,-21.554751,83.77
1841,5.110617,304,-22.381959,83.77
1842,5.113393,303,-23.477141,83.77
1843,5.116169,302,-24.604978,83.77
1844,5.118945,300,-25.710037,83.77
1845,5.121721,299,-26.852756,83.77
1846,5.124497,299,-27.836983,83.77
1847,5.127273,298,-28.436900,83.77
1848,5.130049,296,-28.842280,83.77
1849,5.132825,294,-29.451467,83.77
1850,5.135601,293,-30.381610,83.77
1851,5.138377,291,-31.501267,83.77
1852,5.141153,289,-32.748684,83.77
1853,5.143929,287,-34.095880,83.77
1854,5.146705,286,-35.405964,83.77
1855,5.149481,284,-36.582854,83.77
1856,5.152257,283,-37.663308,83.77
1857,5.155033,282,-38.616158,83.77
1858,5.157809,281,-39.361313,83.77
1859,5.160585,280,-39.896791,83.77
1860,5.163361,279,-40.275831,83.77
1861,5.166137,277,-40.666756,83.77
1862,5.168913,276,-41.235686,83.77
1863,5.171689,275,-41.917806,83.77
1864,5.174465,275,-42.477279,83.77
1865,5.177241,277,-42.525603,83.77
1866,5.180017,279,-41.681920,83.77
1867,5.182793,279,-40.101494,83.77
1868,5.185569,281,-38.246492,83.77
1869,5.188345,284,-36.147870,83.77
1870,5.191121,288,-33.511654,83.77
1871,5.193897,291,-30.254235,83.77
1872,5.196673,295,-26.549544,83.77
1873,5.199449,299,-22.531971,83.77
1874,5.202225,304,-18.208522,83.77
1875,5.205001,308,-13.625386,83.77
1876,5.207777,313,-8.907826,83.77
1877,5.210553,316,-4.240015,83.77
1878,5.213329,319,0.083936,83.77
1879,5.216105,323,3.977561,83.77
1880,5.218881,328,7.755434,83.77
1881,5.221657,332,11.691201,83.77
1882,5.224433,336,15.735178,83.77
1883,5.227209,339,19.681610,83.77
1884,5.229985,341,23.263753,83.77
1885,5.232761,343,26.258764,83.77
1886,5.235537,346,28.734951,83.77
1887,5.238313,349,30.990363,83.77
1888,5.241089,351,33.180997,83.77
1889,5.243865,352,35.169859,83.77
1890,5.246641,353,36.774672,83.77
1891,5.249417,355,38.059605,83.77
1892,5.252193,356,39.188031,83.77
1893,5.254969,356,40.059591,83.77
1894,5.257745,355,40.392101,83.77
1895,5.260521,355,40.132469,83.77
1896,5.263297,356,39.646941,109.99
1897,5.266073,359,39.530946,109.99
1898,5.268849,361,40.155562,109.99
1899,5.271625,363,41.387693,109.99
1900,5.274401,364,42.843365,109.99
1901,5.277177,363,44.045222,109.99
1902,5.279953,363,44.612492,109.99
1903,5.282729,361,44.420163,109.99
1904,5.285505,359,43.365442,109.99
1905,5.288281,359,41.646978,109.99
1906,5.291057,358,39.805729,109.99
1907,5.293833,358,38.221238,109.99
1908,5.296609,358,37.080354,109.99
1909,5.299385,358,36.386348,109.99
1910,5.302161,358,35.953121,109.99
1911,5.304937,357,35.513525,109.99
1912,5.307713,357,34.901557,109.99
1913,5.310489,357,34.231825,109.99
1914,5.313265,356,33.597453,109.99
1915,5.316041,356,32.936241,109.99
1916,5.318817,356,32.274914,109.99
1917,5.321593,357,31.749550,109.99
1918,5.324369,357,31.452869,109.99
1919,5.327145,356,31.231918,109.99
1920,5.329921,355,30.810715,109.99
1921,5.332697,354,30.070481,109.99
1922,5.335473,353,29.025237,109.99
1923,5.338249,353,27.813219,109.99
1924,5.341025,354,26.773989,109.99
1925,5.343801,354,26.179447,109.99
1926,5.346577,355,26.039268,109.99
1927,5.349353,355,26.224338,109.99
1928,5.352129,354,26.392434,109.99
1929,5.354905,354,26.220850,109.99
1930,5.357681,353,25.683532,109.99
1931,5.360457,353,24.912538,109.99
1932,5.363233,352,24.070182,109.99
1933,5.366009,352,23.255513,109.99
1934,5.368785,353,22.632517,109.99
1935,5.371561,352,22.245484,109.99
1936,5.374337,352,21.871969,109.99
1937,5.377113,352,21.454145,109.99
1938,5.379889,352,21.096564,109.99
1939,5.382665,352,20.823481,109.99
1940,5.385441,353,20.667781,109.99
1941,5.388217,353,20.650861,109.99
1942,5.390993,352,20.578387,109.99
1943,5.393769,350,20.117134,109.99
1944,5.396545,348,19.069063,109.99
1945,5.399321,349,17.701527,109.99
1946,5.402097,351,16.716908,109.99
1947,5.404873,352,16.524668,109.99
1948,5.407649,353,16.962178,109.99
1949,5.410425,352,17.601960,109.99
1950,5.413201,349,17.807997,109.99
1951,5.415977,348,17.156532,109.99
1952,5.418753,348,15.918402,109.99
1953,5.421529,349,14.695360,109.99
1954,5.424305,348,13.789751,109.99
1955,5.427081,349,13.226880,109.99
1956,5.429857,349,13.077650,109.99
1957,5.432633,349,13.239765,109.99
1958,5.435409,349,13.413212,109.99
1959,5.438185,349,13.396007,109.99
1960,5.440961,348,13.090469,109.99
1961,5.443737,348,12.552921,109.99
1962,5.446513,348,12.037466,109.99
1963,5.449289,347,11.634417,109.99
1964,5.452065,348,11.268658,109.99
1965,5.454841,349,11.060166,109.99
1966,5.457617,350,11.155909,109.99
1967,5.460393,351,11.585704,109.99
1968,5.463169,351,12.254104,109.99
1969,5.465945,350,12.823444,109.99
1970,5.468721,350,12.974315,109.99
1971,5.471497,349,12.639041,109.99
1972,5.474273,348,11.851255,109.99
1973,5.477049,348,10.829909,109.99
1974,5.479825,349,10.042949,109.99
1975,5.482601,349,9.763143,109.99
1976,5.485377,349,9.801166,109.99
1977,5.488153,349,9.846877,109.99
1978,5.490929,348,9.695284,109.99
1979,5.493705,347,9.225907,109.99
1980,5.496481,347,8.550874,109.99
1981,5.499257,348,8.014567,109.99
1982,5.502033,349,7.882103,109.99
1983,5.504809,349,8.073396,109.99
1984,5.507585,348,8.231659,109.99
1985,5.510361,349,8.217863,109.99
1986,5.513137,350,8.312606,109.99
1987,5.515913,352,8.796275,109.99
1988,5.518689,352,9.585315,109.99
1989,5.521465,352,10.282530,109.99
1990,5.524241,350,10.487535,109.99
1991,5.527017,348,9.956977,109.99
1992,5.529793,349,8.936214,109.99
1993,5.532569,351,8.171954,109.99
1994,5.535345,352,8.101060,109.99
1995,5.538121,352,8.497494,109.99
1996,5.540897,351,8.886902,109.99
1997,5.543673,349,8.866143,109.99
1998,5.546449,348,8.268062,109.99
1999,5.549225,348,7.289316,109.99
2000,5.552001,350,6.419586,109.99
2001,5.554777,351,6.104259,109.99
2002,5.557553,351,6.342552,109.99
2003,5.560329,351,6.835824,109.99
2004,5.563105,350,7.262762,109.99
2005,5.565881,350,7.359894,109.99
2006,5.568657,349,7.016610,109.99
2007,5.571433,349,6.297400,109.99
2008,5.574209,349,5.503698,109.99
2009,5.576985,349,4.962664,109.99
2010,5.579761,349,4.753806,109.99
2011,5.582537,350,4.810442,109.99
2012,5.585313,350,4.997393,109.99
2013,5.588089,350,5.110674,109.99
2014,5.590865,349,5.011266,109.99
2015,5.593641,348,4.660678,109.99
2016,5.596417,347,4.077328,109.99
2017,5.599193,346,3.272084,109.99
2018,5.601969,345,2.221231,109.99
2019,5.604745,346,1.123205,109.99
2020,5.607521,346,0.371095,109.99
2021,5.610297,347,0.179148,109.99
2022,5.613073,347,0.486528,109.99
2023,5.615849,348,1.055243,109.99
2024,5.618625,348,1.620791,109.99
2025,5.621401,348,1.969260,109.99
2026,5.624177,347,1.985005,109.99
2027,5.626953,346,1.660933,109.99
2028,5.629729,346,1.135136,109.99
2029,5.632505,346,0.624206,109.99
2030,5.635281,345,0.119082,109.99
2031,5.638057,345,-0.487481,109.99
2032,5.640833,343,-1.217986,109.99
2033,5.643609,342,-2.108997,109.99
2034,5.646385,342,-3.017983,109.99
2035,5.649161,341,-3.790835,109.99
2036,5.651937,342,-4.418541,109.99
2037,5.654713,343,-4.728754,109.99
2038,5.657489,343,-4.615887,109.99
2039,5.660265,343,-4.243125,109.99
2040,5.663041,343,-3.804271,109.99
2041,5.665817,342,-3.531677,109.99
2042,5.668593,341,-3.704048,109.99
2043,5.671369,341,-4.313943,109.99
2044,5.674145,341,-5.010983,109.99
2045,5.676921,341,-5.478223,109.99
2046,5.679697,340,-5.714239,109.99
2047,5.682473,339,-5.985794,109.99
2048,5.685249,338,-6.526947,109.99
2049,5.688025,338,-7.293236,109.99
2050,5.690801,338,-8.008224,109.99
2051,5.693577,338,-8.442422,109.99
2052,5.696353,337,-8.639015,109.99
2053,5.699129,338,-8.709627,109.99
2054,5.701905,338,-8.638140,109.99
2055,5.704681,339,-8.425368,109.99
2056,5.707457,339,-8.097247,109.99
2057,5.710233,339,-7.719076,109.99
2058,5.713009,339,-7.369590,109.99
2059,5.715785,339,-7.089813,109.99
2060,5.718561,337,-7.089364,109.99
2061,5.721337,336,-7.628836,109.99
2062,5.724113,336,-8.535209,109.99
2063,5.726889,336,-9.342355,109.99
2064,5.729665,336,-9.797992,109.99
2065,5.732441,336,-9.929876,109.99
2066,5.735217,337,-9.809731,109.99
2067,5.737993,337,-9.492266,109.99
2068,5.740769,337,-9.127626,109.99
2069,5.743545,337,-8.827509,109.99
2070,5.746321,336,-8.666704,109.99
2071,5.749097,336,-8.720834,109.99
2072,5.751873,336,-8.911573,109.99
2073,5.754649,337,-9.039068,109.99
2074,5.757425,336,-9.037570,109.99
2075,5.760201,336,-9.035044,109.99
2076,5.762977,336,-9.044466,109.99
2077,5.765753,335,-9.078196,109.99
2078,5.768529,334,-9.333289,109.99
2079,5.771305,334,-9.843740,109.99
2080,5.774081,334,-10.375587,109.99
2081,5.776857,334,-10.717850,109.99
2082,5.779633,333,-10.895739,109.99
2083,5.782409,333,-11.047632,109.99
2084,5.785185,331,-11.342045,109.99
2085,5.787961,330,-11.982766,109.99
2086,5.790737,329,-12.935011,109.99
2087,5.793513,329,-13.902799,109.99
2088,5.796289,330,-14.509882,109.99
2089,5.799065,332,-14.416636,109.99
2090,5.801841,333,-13.582916,109.99
2091,5.804617,333,-12.399445,109.99
2092,5.807393,332,-11.424884,109.99
2093,5.810169,332,-10.936724,109.99
2094,5.812945,331,-10.883482,109.99
2095,5.815721,330,-11.211228,109.99
2096,5.818497,330,-11.804313,109.99
2097,5.821273,330,-12.380411,109.99
2098,5.824049,331,-12.659517,109.99
2099,5.826825,332,-12.447325,109.99
2100,5.829601,331,-11.896346,109.99
2101,5.832377,331,-11.417597,109.99
2102,5.835153,329,-11.318132,109.99
2103,5.837929,329,-11.683021,109.99
2104,5.840705,328,-12.315802,109.99
2105,5.843481,328,-12.966848,109.99
2106,5.846257,329,-13.368624,109.99
2107,5.849033,331,-13.187741,109.99
2108,5.851809,333,-12.261322,109.99
2109,5.854585,335,-10.694719,109.99
2110,5.857361,337,-8.726285,109.99
2111,5.860137,339,-6.565456,109.99
2112,5.862913,340,-4.434224,109.99
2113,5.865689,341,-2.580957,109.99
2114,5.868465,342,-1.110542,109.99
2115,5.871241,341,-0.109049,109.99
2116,5.874017,340,0.234098,109.99
2117,5.876793,340,-0.006332,109.99
2118,5.879569,338,-0.615086,109.99
2119,5.882345,338,-1.484956,109.99
2120,5.885121,338,-2.348402,109.99
2121,5.887897,339,-2.873454,109.99
2122,5.890673,338,-3.027553,109.99
2123,5.893449,338,-3.047750,109.99
2124,5.896225,336,-3.208134,109.99
2125,5.899001,335,-3.733979,109.99
2126,5.901777,332,-4.773733,109.99
2127,5.904553,330,-6.387520,109.99
2128,5.907329,328,-8.401510,109.99
2129,5.910105,326,-10.517842,109.99
2130,5.912881,324,-12.571533,109.99
2131,5.915657,323,-14.438880,109.99
2132,5.918433,323,-15.908970,109.99
2133,5.921209,324,-16.726251,109.99
2134,5.923985,324,-16.839034,109.99
2135,5.926761,324,-16.504251,109.99
2136,5.929537,323,-16.091965,109.99
2137,5.932313,323,-15.844823,109.99
2138,5.935089,323,-15.753619,109.99
2139,5.937865,324,-15.643271,109.99
2140,5.940641,323,-15.458671,109.99
2141,5.943417,323,-15.325553,109.99
2142,5.946193,323,-15.236015,109.99
2143,5.948969,325,-14.938746,109.99
2144,5.951745,326,-14.213331,109.99
2145,5.954521,326,-13.230376,109.99
2146,5.957297,325,-12.439164,109.99
2147,5.960073,324,-12.134270,109.99
2148,5.962849,321,-12.473135,109.99
2149,5.965625,317,-13.714952,109.99
2150,5.968401,315,-15.870289,109.99
2151,5.971177,314,-18.374093,109.99
2152,5.973953,311,-20.736722,109.99
2153,5.976729,306,-23.147526,109.99
2154,5.979505,297,-26.366778,109.99
2155,5.982281,287,-31.248190,109.99
2156,5.985057,274,-38.315681,109.99
2157,5.987833,265,-47.356510,109.99
2158,5.990609,263,-56.742656,109.99
2159,5.993385,272,-63.454778,109.99
2160,5.996161,297,-63.644767,109.99
2161,5.998937,325,-54.324339,109.99
2162,6.001713,349,-35.983876,109.99
2163,6.004489,372,-12.127978,109.99
2164,6.007265,391,13.376144,109.99
2165,6.010041,410,37.725561,109.99
2166,6.012817,428,59.624521,109.99
2167,6.015593,441,78.613839,109.99
2168,6.018369,447,93.972160,109.99
2169,6.021145,444,104.475730,109.99
2170,6.023921,430,108.500983,109.99
2171,6.026697,409,104.525072,109.99
2172,6.029473,382,91.970674,109.99
2173,6.032249,354,71.657002,109.99
2174,6.035025,329,45.982449,109.99
2175,6.037801,309,18.516814,109.99
2176,6.040577,297,-6.951388,109.99
2177,6.043353,289,-27.532163,109.99
2178,6.046129,282,-42.342356,109.99
2179,6.048905,276,-52.351605,109.99
2180,6.051681,274,-58.862127,109.99
2181,6.054457,277,-62.294537,109.99
2182,6.057233,284,-62.326073,109.99
2183,6.060009,294,-58.693630,109.99
2184,6.062785,304,-51.752831,109.99
2185,6.065561,311,-42.728710,109.99
2186,6.068337,315,-33.421209,109.99
2187,6.071113,317,-25.413064,109.99
2188,6.073889,317,-19.609191,109.99
2189,6.076665,317,-16.219046,109.99
2190,6.079441,318,-14.745483,109.99
2191,6.082217,319,-14.272630,109.99
2192,6.084993,319,-14.071558,109.99
2193,6.087769,320,-13.754713,109.99
2194,6.090545,320,-13.171592,109.99
2195,6.093321,320,-12.489574,109.99
2196,6.096097,319,-12.058472,109.99
2197,6.098873,320,-11.970217,109.99
2198,6.101649,320,-11.943851,109.99
2199,6.104425,322,-11.613277,109.99
2200,6.107201,323,-10.746924,109.99
2201,6.109977,323,-9.552369,109.99
2202,6.112753,322,-8.598547,109.99
2203,6.115529,321,-8.285372,109.99
2204,6.118305,320,-8.600726,109.99
2205,6.121081,320,-9.205376,109.99
2206,6.123857,320,-9.706703,109.99
2207,6.126633,320,-9.948144,109.99
2208,6.129409,320,-10.000059,109.99
2209,6.132185,320,-9.956137,109.99
2210,6.134961,319,-9.920431,109.99
2211,6.137737,319,-9.960404,109.99
2212,6.140513,318,-10.070592,109.99
2213,6.143289,318,-10.267110,109.99
2214,6.146065,317,-10.574307,109.99
2215,6.148841,317,-10.970714,109.99
2216,6.151617,318,-11.223915,109.99
2217,6.154393,319,-11.016382,109.99
2218,6.157169,319,-10.371022,109.99
2219,6.159945,319,-9.621661,109.99
2220,6.162721,319,-9.037755,109.99
2221,6.165497,318,-8.753905,109.99
2222,6.168273,318,-8.782099,109.99
2223,6.171049,318,-8.923993,109.99
2224,6.173825,317,-9.066663,109.99
2225,6.176601,316,-9.342188,109.99
2226,6.179377,313,-10.007542,109.99
2227,6.182153,313,-11.108996,109.99
2228,6.184929,311,-12.352827,109.99
2229,6.187705,312,-13.416088,109.99
2230,6.190481,312,-14.000906,109.99
2231,6.193257,312,-14.075284,109.99
2232,6.196033,312,-13.865099,109.99
2233,6.198809,312,-13.534130,109.99
2234,6.201585,312,-13.175621,109.99
2235,6.204361,313,-12.762274,109.99
2236,6.207137,312,-12.316903,109.99
2237,6.209913,311,-12.098723,109.99
2238,6.212689,310,-12.277532,109.99
2239,6.215465,309,-12.777387,109.99
2240,6.218241,310,-13.313601,109.99
2241,6.221017,310,-13.550336,109.99
2242,6.223793,310,-13.467667,109.99
2243,6.226569,309,-13.302067,109.99
2244,6.229345,307,-13.374352,109.99
2245,6.232121,306,-13.870594,109.99
2246,6.234897,303,-14.819493,109.99
2247,6.237673,301,-16.273112,109.99
2248,6.240449,300,-18.022907,109.99
2249,6.243225,299,-19.644292,109.99
2250,6.246001,297,-20.984400,109.99
2251,6.248777,296,-22.124222,109.99
2252,6.251553,294,-23.155141,109.99
2253,6.254329,293,-24.168140,109.99
2254,6.257105,291,-25.223135,109.99
2255,6.259881,289,-26.400722,109.99
2256,6.262657,288,-27.661029,109.99
2257,6.265433,286,-28.857849,109.99
2258,6.268209,285,-29.955725,109.99
2259,6.270985,283,-30.991133,109.99
2260,6.273761,281,-32.088428,109.99
2261,6.276537,280,-33.263816,109.99
2262,6.279313,279,-34.317655,109.99
2263,6.282089,278,-35.118987,109.99
2264,6.284865,277,-35.699411,109.99
2265,6.287641,278,-35.997005,109.99
2266,6.290417,278,-35.856147,109.99
2267,6.293193,278,-35.355080,109.99
2268,6.295969,278,-34.695727,109.99
2269,6.298745,280,-33.832677,109.99
2270,6.301521,282,-32.513844,109.99
2271,6.304297,286,-30.510361,109.99
2272,6.307073,289,-27.743445,109.99
2273,6.309849,292,-24.419880,109.99
2274,6.312625,295,-20.847390,109.99
2275,6.315401,298,-17.213904,109.99
2276,6.318177,301,-13.642545,109.99
2277,6.320953,304,-10.213293,109.99
2278,6.323729,307,-6.945205,109.99
2279,6.326505,311,-3.711701,109.99
2280,6.329281,315,-0.275319,109.99
2281,6.332057,318,3.394464,109.99
2282,6.334833,321,7.054198,109.99
2283,6.337609,323,10.419073,109.99
2284,6.340385,326,13.366802,109.99
2285,6.343161,330,16.131424,109.99
2286,6.345937,333,19.019852,109.99
2287,6.348713,337,22.111667,109.99
2288,6.351489,340,25.363480,109.99
2289,6.354265,343,28.607050,109.99
2290,6.357041,345,31.600712,109.99
2291,6.359817,347,34.162969,109.99
2292,6.362593,348,36.204330,109.99
2293,6.365369,349,37.700754,109.99
2294,6.368145,350,38.730984,109.99
2295,6.370921,351,39.456461,109.99
2296,6.373697,350,39.864940,109.99
2297,6.376473,349,39.744034,109.99
2298,6.379249,349,39.119767,109.99
2299,6.382025,350,38.399674,109.99
2300,6.384801,350,37.907604,109.99
2301,6.387577,351,37.679120,109.99
2302,6.390353,352,37.728302,109.99
2303,6.393129,354,38.146153,109.99
2304,6.395905,357,39.091778,109.99
2305,6.398681,357,40.445802,109.99
2306,6.401457,356,41.550980,109.99
2307,6.404233,353,41.693992,109.99
2308,6.407009,351,40.608309,109.99
2309,6.409785,350,38.657551,109.99
2310,6.412561,350,36.545084,109.99
2311,6.415337,350,34.808209,109.99
2312,6.418113,349,33.549511,109.99
2313,6.420889,350,32.699772,109.99
2314,6.423665,350,32.286603,109.99
2315,6.426441,350,32.166497,109.99
2316,6.429217,349,31.999867,109.99
2317,6.431993,349,31.576630,109.99
2318,6.434769,349,30.990153,109.99
2319,6.437545,349,30.433516,109.99
2320,6.440321,349,29.986994,109.99
2321,6.443097,348,29.561415,109.99
2322,6.445873,347,28.941322,109.99
2323,6.448649,346,28.018569,109.99
2324,6.451425,346,26.932949,109.99
2325,6.454201,346,25.960166,109.99
2326,6.456977,346,25.257736,109.99
2327,6.459753,345,24.724192,109.99
2328,6.462529,344,24.110028,109.99
2329,6.465305,344,23.343989,109.99
2330,6.468081,343,22.521593,109.99
2331,6.470857,343,21.696757,109.99
2332,6.473633,343,20.976028,109.99
2333,6.476409,343,20.452962,109.99
2334,6.479185,343,20.104234,109.99
2335,6.481961,343,19.864941,109.99
2336,6.484737,343,19.671936,109.99
2337,6.487513,343,19.483865,109.99
2338,6.490289,342,19.207346,109.99
2339,6.493065,342,18.763544,109.99
2340,6.495841,341,18.180061,109.99
2341,6.498617,341,17.509109,109.99
2342,6.501393,341,16.870712,109.99
2343,6.504169,341,16.375563,109.99
2344,6.506945,340,15.948617,109.99
2345,6.509721,340,15.475725,109.99
2346,6.512497,340,15.013332,109.99
2347,6.515273,340,14.648628,109.99
2348,6.518049,340,14.370253,109.99
2349,6.520825,340,14.144929,109.99
2350,6.523601,341,14.032619,109.99
2351,6.526377,342,14.186815,109.99
2352,6.529153,342,14.580094,109.99
2353,6.531929,342,14.963038,109.99
2354,6.534705,342,15.161344,109.99
2355,6.537481,341,15.087525,109.99
2356,6.540257,339,14.563789,109.99
2357,6.543033,338,13.517388,109.99
2358,6.545809,338,12.244524,109.99
2359,6.548585,339,11.230810,109.99
2360,6.551361,338,10.647405,109.99
2361,6.554137,338,10.279983,109.99
2362,6.556913,337,9.928963,109.99
2363,6.559689,338,9.603679,109.99
2364,6.562465,339,9.513961,109.99
2365,6.565241,340,9.787727,109.99
2366,6.568017,341,10.348364,109.99
2367,6.570793,341,11.023076,109.99
2368,6.573569,341,11.588146,109.99
2369,6.576345,340,11.845007,109.99
2370,6.579121,340,11.709236,109.99
2371,6.581897,340,11.311388,109.99
2372,6.584673,340,10.847692,109.99
2373,6.587449,340,10.440341,109.99
2374,6.590225,339,10.084364,109.99
2375,6.593001,338,9.627048,109.99
2376,6.595777,337,8.944732,109.99
2377,6.598553,338,8.175190,109.99
2378,6.601329,338,7.606013,109.99
2379,6.604105,338,7.301473,109.99
2380,6.606881,337,7.098968,109.99
2381,6.609657,337,6.863970,109.99
2382,6.612433,337,6.616271,109.99
2383,6.615209,337,6.388899,109.99
2384,6.617985,337,6.151164,109.99
2385,6.620761,338,5.993389,109.99
2386,6.623537,339,6.134434,109.99
2387,6.626313,339,6.595271,109.99
2388,6.629089,338,7.033336,109.99
2389,6.631865,336,6.971604,109.99
2390,6.634641,335,6.203130,109.99
2391,6.637417,336,5.113392,109.99
2392,6.640193,336,4.288888,109.99
2393,6.642969,337,3.971121,109.99
2394,6.645745,337,4.099896,109.99
2395,6.648521,336,4.343294,109.99
2396,6.651297,336,4.365928,109.99
2397,6.654073,337,4.256694,109.99
2398,6.656849,336,4.168810,109.99
2399,6.659625,336,4.011374,109.99
2400,6.662401,337,3.867726,109.99
2401,6.665177,337,3.919279,109.99
2402,6.667953,337,4.076686,109.99
2403,6.670729,337,4.183830,109.99
2404,6.673505,336,4.125733,109.99
2405,6.676281,336,3.848987,109.99
2406,6.679057,336,3.488800,109.99
2407,6.681833,336,3.190913,109.99
2408,6.684609,336,2.975440,109.99
2409,6.687385,336,2.821555,109.99
2410,6.690161,336,2.715161,109.99
2411,6.692937,335,2.574231,109.99
2412,6.695713,335,2.305880,109.99
2413,6.698489,333,1.826987,109.99
2414,6.701265,332,1.003254,109.99
2415,6.704041,332,-0.030450,109.99
2416,6.706817,334,-0.759864,109.99
2417,6.709593,335,-0.769048,109.99
2418,6.712369,336,-0.121867,109.99
2419,6.715145,335,0.726184,109.99
2420,6.717921,333,1.156527,109.99
2421,6.720697,331,0.751227,109.99
2422,6.723473,332,-0.246564,109.99
2423,6.726249,334,-1.038824,109.99
2424,6.729025,335,-1.087449,109.99
2425,6.731801,336,-0.473205,109.99
2426,6.734577,336,0.456638,109.99
2427,6.737353,336,1.333519,109.99
2428,6.740129,335,1.845005,109.99
2429,6.742905,333,1.700062,109.99
2430,6.745681,332,0.818777,109.99
2431,6.748457,332,-0.412094,109.99
2432,6.751233,332,-1.457371,109.99
2433,6.754009,333,-1.996611,109.99
2434,6.756785,332,-2.083338,109.99
2435,6.759561,332,-2.064110,109.99
2436,6.762337,332,-2.113702,109.99
2437,6.765113,332,-2.187185,109.99
2438,6.767889,333,-2.163141,109.99
2439,6.770665,333,-1.940652,109.99
2440,6.773441,333,-1.631561,109.99
2441,6.776217,333,-1.397367,109.99
2442,6.778993,333,-1.282048,109.99
2443,6.781769,333,-1.260616,109.99
2444,6.784545,333,-1.284026,109.99
2445,6.787321,332,-1.390997,109.99
2446,6.790097,332,-1.648785,109.99
2447,6.792873,332,-1.965268,109.99
2448,6.795649,332,-2.218546,109.99
2449,6.798425,332,-2.381818,109.99
2450,6.801201,332,-2.460533,109.99
2451,6.803977,332,-2.470896,109.99
2452,6.806753,332,-2.440570,109.99
2453,6.809529,331,-2.482361,109.99
2454,6.812305,331,-2.703739,109.99
2455,6.815081,331,-3.010030,109.99
2456,6.817857,331,-3.253496,109.99
2457,6.820633,330,-3.466949,109.99
2458,6.823409,330,-3.743269,109.99
2459,6.826185,331,-3.944813,109.99
2460,6.828961,332,-3.824143,109.99
2461,6.831737,333,-3.322849,109.99
2462,6.834513,333,-2.609136,109.99
2463,6.837289,334,-1.871479,109.99
2464,6.840065,335,-1.103233,109.99
2465,6.842841,336,-0.252808,109.99
2466,6.845617,336,0.567480,109.99
2467,6.848393,334,1.006514,109.99
2468,6.851169,332,0.685986,109.99
2469,6.853945,331,-0.348112,109.99
2470,6.856721,331,-1.624058,109.99
2471,6.859497,330,-2.764011,109.99
2472,6.862273,329,-3.763342,109.99
2473,6.865049,328,-4.716997,109.99
2474,6.867825,329,-5.475455,109.99
2475,6.870601,329,-5.794622,109.99
2476,6.873377,329,-5.745617,109.99
2477,6.876153,329,-5.581176,109.99
2478,6.878929,329,-5.439737,109.99
2479,6.881705,328,-5.422471,109.99
2480,6.884481,328,-5.577721,109.99
2481,6.887257,328,-5.785731,109.99
2482,6.890033,329,-5.854407,109.99
2483,6.892809,328,-5.785128,109.99
2484,6.895585,328,-5.776697,109.99
2485,6.898361,328,-5.852587,109.99
2486,6.901137,329,-5.813692,109.99
2487,6.903913,329,-5.552342,109.99
2488,6.906689,329,-5.206533,109.99
2489,6.909465,328,-5.028357,109.99
2490,6.912241,326,-5.280486,109.99
2491,6.915017,326,-5.974425,109.99
2492,6.917793,326,-6.730093,109.99
2493,6.920569,327,-7.172659,109.99
2494,6.923345,328,-7.131328,109.99
2495,6.926121,329,-6.617443,109.99
2496,6.928897,329,-5.833638,109.99
2497,6.931673,328,-5.143996,109.99
2498,6.934449,328,-4.809961,109.99
2499,6.937225,328,-4.775302,109.99
2500,6.940001,328,-4.889815,109.99
2501,6.942777,329,-4.979716,109.99
2502,6.945553,329,-4.873704,109.99
2503,6.948329,329,-4.602334,109.99
2504,6.951105,331,-4.139936,109.99
2505,6.953881,334,-3.186619,109.99
2506,6.956657,337,-1.530601,109.99
2507,6.959433,338,0.590319,109.99
2508,6.962209,339,2.670763,109.99
2509,6.964985,339,4.353915,109.99
2510,6.967761,340,5.552512,109.99
2511,6.970537,339,6.244605,109.99
2512,6.973313,339,6.359632,109.99
2513,6.976089,338,5.971679,109.99
2514,6.978865,339,5.403516,109.99
2515,6.981641,340,5.125348,109.99
2516,6.984417,341,5.379133,109.99
2517,6.987193,341,5.959935,109.99
2518,6.989969,339,6.332210,109.99
2519,6.992745,334,5.747550,109.99
2520,6.995521,330,3.737290,109.99
2521,6.998297,327,0.615346,109.99
2522,7.001073,326,-2.782096,109.99
2523,7.003849,325,-5.719679,109.99
2524,7.006625,325,-7.847826,109.99
2525,7.009401,324,-9.155521,109.99
2526,7.012177,323,-9.890883,109.99
2527,7.014953,322,-10.370544,109.99
2528,7.017729,322,-10.763708,109.99
2529,7.020505,321,-11.166954,109.99
2530,7.023281,322,-11.570743,109.99
2531,7.026057,322,-11.768184,109.99
2532,7.028833,322,-11.665012,109.99
2533,7.031609,321,-11.436740,109.99
2534,7.034385,320,-11.381560,109.99
2535,7.037161,319,-11.711193,109.99
2536,7.039937,320,-12.270982,109.99
2537,7.042713,320,-12.668991,109.99
2538,7.045489,321,-12.660174,109.99
2539,7.048265,322,-12.153973,109.99
2540,7.051041,322,-11.292786,109.99
2541,7.053817,322,-10.463560,109.99
2542,7.056593,321,-10.003191,109.99
2543,7.059369,320,-10.062883,109.99
2544,7.062145,319,-10.557290,109.99
2545,7.064921,315,-11.510585,109.99
2546,7.067697,311,-13.261296,109.99
2547,7.070473,308,-15.878816,109.99
2548,7.073249,307,-18.837256,109.99
2549,7.076025,303,-21.669131,109.99
2550,7.078801,297,-24.646001,109.99
2551,7.081577,288,-28.521290,109.99
2552,7.084353,277,-34.032368,109.99
2553,7.087129,263,-41.743295,109.99
2554,7.089905,253,-51.528762,109.99
2555,7.092681,252,-61.605973,109.99
2556,7.095457,263,-68.530118,109.99
2557,7.098233,291,-68.062227,109.99
2558,7.101009,324,-56.952876,109.99
2559,7.103785,351,-35.712257,83.77
2560,7.106561,375,-8.508924,83.77
2561,7.109337,394,19.855443,83.77
2562,7.112113,411,45.898142,83.77
2563,7.114889,428,68.091955,83.77
2564,7.117665,439,86.223536,83.77
2565,7.120441,444,100.023113,83.77
2566,7.123217,439,108.686800,83.77
2567,7.125993,424,110.878991,83.77
2568,7.128769,402,105.282103,83.77
2569,7.131545,374,91.394294,83.77
2570,7.134321,345,69.946778,83.77
2571,7.137097,320,43.313289,83.77
2572,7.139873,300,15.175115,83.77
2573,7.142649,286,-10.776392,83.77
2574,7.145425,278,-31.886161,83.77
2575,7.148201,271,-47.199702,83.77
2576,7.150977,267,-57.389867,83.77
2577,7.153753,266,-63.539093,83.77
2578,7.156529,268,-66.297342,83.77
2579,7.159305,273,-65.946841,83.77
2580,7.162081,282,-62.559565,83.77
2581,7.164857,292,-56.286920,83.77
2582,7.167633,300,-47.897504,83.77
2583,7.170409,304,-38.914612,83.77
2584,7.173185,306,-30.959460,83.77
2585,7.175961,306,-25.035967,83.77
2586,7.178737,305,-21.477810,83.77
2587,7.181513,305,-20.038331,83.77
2588,7.184289,305,-19.985948,83.77
2589,7.187065,305,-20.506878,83.77
2590,7.189841,305,-20.981490,83.77
2591,7.192617,306,-20.997961,83.77
2592,7.195393,307,-20.402999,83.77
2593,7.198169,307,-19.455334,83.77
2594,7.200945,307,-18.624974,83.77
2595,7.203721,306,-18.191753,83.77
2596,7.206497,307,-18.022963,83.77
2597,7.209273,307,-17.741060,83.77
2598,7.212049,307,-17.264759,83.77
2599,7.214825,307,-16.808667,83.77
2600,7.217601,307,-16.526274,83.77
2601,7.220377,306,-16.475918,83.77
2602,7.223153,306,-16.584773,83.77
2603,7.225929,305,-16.700023,83.77
2604,7.228705,305,-16.785630,83.77
2605,7.231481,304,-16.931962,83.77
2606,7.234257,304,-17.222607,83.77
2607,7.237033,304,-17.540745,83.77
2608,7.239809,305,-17.587820,83.77
2609,7.242585,303,-17.349038,83.77
2610,7.245361,304,-17.080970,83.77
2611,7.248137,304,-16.814333,83.77
2612,7.250913,304,-16.553396,83.77
2613,7.253689,304,-16.365307,83.77
2614,7.256465,303,-16.248115,83.77
2615,7.259241,302,-16.264165,83.77
2616,7.262017,302,-16.405121,83.77
2617,7.264793,302,-16.555000,83.77
2618,7.267569,302,-16.661959,83.77
2619,7.270345,302,-16.707489,83.77
2620,7.273121,301,-16.695907,83.77
2621,7.275897,300,-16.727754,83.77
2622,7.278673,300,-16.836398,83.77
2623,7.281449,300,-16.940366,83.77
2624,7.284225,301,-16.932666,83.77
2625,7.287001,301,-16.721761,83.77
2626,7.289777,299,-16.482347,83.77
2627,7.292553,298,-16.515128,83.77
2628,7.295329,297,-16.850957,83.77
2629,7.298105,296,-17.422057,83.77
2630,7.300881,296,-18.139488,83.77
2631,7.303657,295,-18.838020,83.77
2632,7.306433,295,-19.363507,83.77
2633,7.309209,294,-19.618775,83.77
2634,7.311985,294,-19.652984,83.77
2635,7.314761,294,-19.567052,83.77
2636,7.317537,294,-19.448675,83.77
2637,7.320313,293,-19.418191,83.77
2638,7.323089,292,-19.557469,83.77
2639,7.325865,290,-19.908962,83.77
2640,7.328641,289,-20.499310,83.77
2641,7.331417,288,-21.273786,83.77
2642,7.334193,287,-22.163116,83.77
2643,7.336969,285,-23.177409,83.77
2644,7.339745,284,-24.260932,83.77
2645,7.342521,283,-25.198736,83.77
2646,7.345297,282,-25.879417,83.77
2647,7.348073,281,-26.429881,83.77
2648,7.350849,280,-27.018305,83.77
2649,7.353625,278,-27.763505,83.77
2650,7.356401,277,-28.647358,83.77
2651,7.359177,274,-29.614703,83.77
2652,7.361953,272,-30.777293,83.77
2653,7.364729,270,-32.193224,83.77
2654,7.367505,269,-33.720900,83.77
2655,7.370281,268,-35.108528,83.77
2656,7.373057,268,-36.065229,83.77
2657,7.375833,267,-36.456838,83.77
2658,7.378609,266,-36.482354,83.77
2659,7.381385,264,-36.555519,83.77
2660,7.384161,263,-36.966283,83.77
2661,7.386937,262,-37.646626,83.77
2662,7.389713,263,-38.192991,83.77
2663,7.392489,263,-38.196901,83.77
2664,7.395265,264,-37.586588,83.77
2665,7.398041,264,-36.575400,83.77
2666,7.400817,267,-35.271989,83.77
2667,7.403593,270,-33.440611,83.77
2668,7.406369,273,-30.899181,83.77
2669,7.409145,275,-27.836441,83.77
2670,7.411921,278,-24.550068,83.77
2671,7.414697,281,-21.186039,83.77
2672,7.417473,286,-17.663885,83.77
2673,7.420249,292,-13.663912,83.77
2674,7.423025,297,-8.976233,83.77
2675,7.425801,300,-3.925461,83.77
2676,7.428577,304,0.972796,83.77
2677,7.431353,307,5.460736,83.77
2678,7.434129,311,9.479691,83.77
2679,7.436905,316,13.234264,83.77
2680,7.439681,321,17.112127,83.77
2681,7.442457,326,21.352211,83.77
2682,7.445233,329,25.824440,83.77
2683,7.448009,331,30.004454,83.77
2684,7.450785,334,33.478461,83.77
2685,7.453561,337,36.306903,83.77
2686,7.456337,340,38.762495,83.77
2687,7.459113,342,41.028766,83.77
2688,7.461889,345,43.222201,83.77
2689,7.464665,346,45.347551,109.99
2690,7.467441,348,47.216000,109.99
2691,7.470217,350,48.758837,109.99
2692,7.472993,352,50.096090,109.99
2693,7.475769,353,51.294687,109.99
2694,7.478545,355,52.411180,109.99
2695,7.481321,356,53.517343,109.99
2696,7.484097,357,54.519718,109.99
2697,7.486873,357,55.188476,109.99
2698,7.489649,357,55.357689,109.99
2699,7.492425,356,55.003973,109.99
2700,7.495201,355,54.190414,109.99
2701,7.497977,354,53.033312,109.99
2702,7.500753,355,51.803973,109.99
2703,7.503529,355,50.798867,109.99
2704,7.506305,357,50.192618,109.99
2705,7.509081,358,50.124744,109.99
2706,7.511857,359,50.544511,109.99
2707,7.514633,359,51.149118,109.99
2708,7.517409,359,51.571124,109.99
2709,7.520185,358,51.505663,109.99
2710,7.522961,359,50.958057,109.99
2711,7.525737,359,50.265521,109.99
2712,7.528513,358,49.581727,109.99
2713,7.531289,356,48.690877,109.99
2714,7.534065,355,47.410455,109.99
2715,7.536841,355,45.896970,109.99
2716,7.539617,355,44.470812,109.99
2717,7.542393,355,43.314640,109.99
2718,7.545169,355,42.477210,109.99
2719,7.547945,354,41.856973,109.99
2720,7.550721,354,41.267103,109.99
2721,7.553497,355,40.723637,109.99
2722,7.556273,355,40.312612,109.99
2723,7.559049,355,39.947401,109.99
2724,7.561825,355,39.568911,109.99
2725,7.564601,356,39.299924,109.99
2726,7.567377,355,39.147074,109.99
2727,7.570153,354,38.780086,109.99
2728,7.572929,353,37.934579,109.99
2729,7.575705,353,36.746408,109.99
2730,7.578481,353,35.583479,109.99
2731,7.581257,354,34.779977,109.99
2732,7.584033,355,34.504291,109.99
2733,7.586809,355,34.611104,109.99
2734,7.589585,354,34.655260,109.99
2735,7.592361,352,34.186803,109.99
2736,7.595137,350,33.007664,109.99
2737,7.597913,350,31.374745,109.99
2738,7.600689,351,29.898704,109.99
2739,7.603465,351,28.947574,109.99
2740,7.606241,352,28.479110,109.99
2741,7.609017,352,28.364030,109.99
2742,7.611793,353,28.495610,109.99
2743,7.614569,353,28.769101,109.99
2744,7.617345,352,28.904639,109.99
2745,7.620121,351,28.556530,109.99
2746,7.622897,350,27.657777,109.99
2747,7.625673,348,26.313133,109.99
2748,7.628449,348,24.749901,109.99
2749,7.631225,347,23.294081,109.99
2750,7.634001,348,22.162845,109.99
2751,7.636777,349,21.532537,109.99
2752,7.639553,349,21.383692,109.99
2753,7.642329,348,21.360895,109.99
2754,7.645105,347,21.105569,109.99
2755,7.647881,347,20.564096,109.99
2756,7.650657,347,19.916037,109.99
2757,7.653433,348,19.363212,109.99
2758,7.656209,348,19.023496,109.99
2759,7.658985,348,18.848983,109.99
2760,7.661761,347,18.676349,109.99
2761,7.664537,347,18.376805,109.99
2762,7.667313,348,18.044169,109.99
2763,7.670089,348,17.811843,109.99
2764,7.672865,347,17.531035,109.99
2765,7.675641,347,17.067849,109.99
2766,7.678417,346,16.501376,109.99
2767,7.681193,345,15.823937,109.99
2768,7.683969,345,15.008698,109.99
2769,7.686745,347,14.333821,109.99
2770,7.689521,347,14.081682,109.99
2771,7.692297,346,14.052572,109.99
2772,7.695073,346,13.949941,109.99
2773,7.697849,345,13.704641,109.99
2774,7.700625,345,13.268190,109.99
2775,7.703401,343,12.520853,109.99
2776,7.706177,342,11.347040,109.99
2777,7.708953,342,9.987420,109.99
2778,7.711729,341,8.828315,109.99
2779,7.714505,341,7.966943,109.99
2780,7.717281,342,7.445169,109.99
2781,7.720057,342,7.257267,109.99
2782,7.722833,342,7.207228,109.99
2783,7.725609,342,7.162785,109.99
2784,7.728385,342,7.142940,109.99
2785,7.731161,342,7.152692,109.99
2786,7.733937,342,7.121314,109.99
2787,7.736713,342,6.967598,109.99
2788,7.739489,341,6.617379,109.99
2789,7.742265,340,6.012964,109.99
2790,7.745041,340,5.281543,109.99
2791,7.747817,340,4.669717,109.99
2792,7.750593,340,4.246782,109.99
2793,7.753369,340,3.919263,109.99
2794,7.756145,341,3.705792,109.99
2795,7.758921,341,3.718456,109.99
2796,7.761697,341,3.907682,109.99
2797,7.764473,341,4.119447,109.99
2798,7.767249,340,4.152187,109.99
2799,7.770025,339,3.774283,109.99
2800,7.772801,338,2.952417,109.99
2801,7.775577,336,1.792638,109.99
2802,7.778353,335,0.420130,109.99
2803,7.781129,336,-0.813579,109.99
2804,7.783905,337,-1.483898,109.99
2805,7.786681,338,-1.505048,109.99
2806,7.789457,339,-1.039178,109.99
2807,7.792233,337,-0.469009,109.99
2808,7.795009,336,-0.303320,109.99
2809,7.797785,336,-0.616109,109.99
2810,7.800561,336,-1.128614,109.99
2811,7.803337,335,-1.741914,109.99
2812,7.806113,334,-2.525233,109.99
2813,7.808889,333,-3.438534,109.99
2814,7.811665,333,-4.275963,109.99
2815,7.814441,333,-4.845774,109.99
2816,7.817217,333,-5.166759,109.99
2817,7.819993,333,-5.385129,109.99
2818,7.822769,332,-5.640149,109.99
2819,7.825545,332,-5.964117,109.99
2820,7.828321,331,-6.288054,109.99
2821,7.831097,329,-6.766978,109.99
2822,7.833873,328,-7.643327,109.99
2823,7.836649,329,-8.701166,109.99
2824,7.839425,330,-9.394860,109.99
2825,7.842201,331,-9.407663,109.99
2826,7.844977,331,-8.850384,109.99
2827,7.847753,331,-8.100949,109.99
2828,7.850529,330,-7.580388,109.99
2829,7.853305,329,-7.595361,109.99
2830,7.856081,329,-8.099156,109.99
2831,7.858857,329,-8.712984,109.99
2832,7.861633,328,-9.202568,109.99
2833,7.864409,327,-9.660190,109.99
2834,7.867185,327,-10.166302,109.99
2835,7.869961,328,-10.554308,109.99
2836,7.872737,328,-10.662194,109.99
2837,7.875513,328,-10.558274,109.99
2838,7.878289,327,-10.429393,109.99
2839,7.881065,327,-10.406616,109.99
2840,7.883841,328,-10.389465,109.99
2841,7.886617,329,-10.173671,109.99
2842,7.889393,330,-9.696785,109.99
2843,7.892169,330,-9.053306,109.99
2844,7.894945,330,-8.414546,109.99
2845,7.897721,329,-7.970166,109.99
2846,7.900497,329,-7.853429,109.99
2847,7.903273,327,-8.165220,109.99
2848,7.906049,327,-8.917067,109.99
2849,7.908825,327,-9.774883,109.99
2850,7.911601,327,-10.352451,109.99
2851,7.914377,327,-10.559968,109.99
2852,7.917153,327,-10.510426,109.99
2853,7.919929,328,-10.310225,109.99
2854,7.922705,329,-9.924258,109.99
2855,7.925481,330,-9.296028,109.99
2856,7.928257,330,-8.501791,109.99
2857,7.931033,329,-7.821809,109.99
2858,7.933809,328,-7.580262,109.99
2859,7.936585,327,-7.896926,109.99
2860,7.939361,326,-8.682495,109.99
2861,7.942137,326,-9.662561,109.99
2862,7.944913,325,-10.537087,109.99
2863,7.947689,326,-11.101635,109.99
2864,7.950465,327,-11.149815,109.99
2865,7.953241,327,-10.740380,109.99
2866,7.956017,328,-10.156832,109.99
2867,7.958793,328,-9.548237,109.99
2868,7.961569,327,-9.087891,109.99
2869,7.964345,326,-8.993488,109.99
2870,7.967121,326,-9.244759,109.99
2871,7.969897,327,-9.544938,109.99
2872,7.972673,326,-9.731230,109.99
2873,7.975449,324,-10.070608,109.99
2874,7.978225,323,-10.779255,109.99
2875,7.981001,322,-11.697202,109.99
2876,7.983777,322,-12.568982,109.99
2877,7.986553,323,-13.148945,109.99
2878,7.989329,325,-13.165386,109.99
2879,7.992105,326,-12.507565,109.99
2880,7.994881,326,-11.427318,109.99
2881,7.997657,325,-10.415081,109.99
2882,8.000433,325,-9.817091,109.99
2883,8.003209,325,-9.639833,109.99
2884,8.005985,325,-9.739731,109.99
2885,8.008761,324,-10.033279,109.99
2886,8.011537,324,-10.418654,109.99
2887,8.014313,324,-10.683624,109.99
2888,8.017089,325,-10.651314,109.99
2889,8.019865,326,-10.278599,109.99
2890,8.022641,327,-9.641287,109.99
2891,8.025417,327,-8.906144,109.99
2892,8.028193,327,-8.238016,109.99
2893,8.030969,326,-7.774840,109.99
2894,8.033745,325,-7.687105,109.99
2895,8.036521,326,-7.929968,109.99
2896,8.039297,325,-8.291206,109.99
2897,8.042073,325,-8.708606,109.99
2898,8.044849,325,-9.048702,109.99
2899,8.047625,326,-9.062200,109.99
2900,8.050401,329,-8.472978,109.99
2901,8.053177,332,-7.072759,109.99
2902,8.055953,332,-5.184920,109.99
2903,8.058729,333,-3.441865,109.99
2904,8.061505,334,-2.019621,109.99
2905,8.064281,334,-0.838679,109.99
2906,8.067057,334,-0.003444,109.99
2907,8.069833,335,0.457426,109.99
2908,8.072609,335,0.679123,109.99
2909,8.075385,336,0.832029,109.99
2910,8.078161,336,1.095243,109.99
2911,8.080937,336,1.472725,109.99
2912,8.083713,336,1.810962,109.99
2913,8.086489,336,1.974637,109.99
2914,8.089265,334,1.761693,109.99
2915,8.092041,332,0.944982,109.99
2916,8.094817,329,-0.510746,109.99
2917,8.097593,326,-2.520845,109.99
2918,8.100369,325,-4.837409,109.99
2919,8.103145,324,-7.043368,109.99
2920,8.105921,322,-8.979070,109.99
2921,8.108697,321,-10.688824,109.99
2922,8.111473,322,-11.920851,109.99
2923,8.114249,322,-12.373872,109.99
2924,8.117025,322,-12.233372,109.99
2925,8.119801,322,-11.921283,109.99
2926,8.122577,322,-11.684267,109.99
2927,8.125353,322,-11.544430,109.99
2928,8.128129,322,-11.402440,109.99
2929,8.130905,321,-11.269751,109.99
2930,8.133681,321,-11.269531,109.99
2931,8.136457,321,-11.401457,109.99
2932,8.139233,322,-11.500667,109.99
2933,8.142009,323,-11.321785,109.99
2934,8.144785,323,-10.789280,109.99
2935,8.147561,323,-10.104850,109.99
2936,8.150337,324,-9.424188,109.99
2937,8.153113,325,-8.723889,109.99
2938,8.155889,324,-8.126618,109.99
2939,8.158665,323,-7.926960,109.99
2940,8.161441,320,-8.342805,109.99
2941,8.164217,316,-9.603910,109.99
2942,8.166993,311,-11.946017,109.99
2943,8.169769,308,-15.263163,109.99
2944,8.172545,304,-19.091701,109.99
2945,8.175321,297,-23.289474,109.99
2946,8.178097,289,-28.202981,109.99
2947,8.180873,279,-34.189772,109.99
2948,8.183649,266,-41.662990,109.99
2949,8.186425,256,-50.757834,109.99
2950,8.189201,255,-60.126468,109.99
2951,8.191977,265,-66.674898,109.99
2952,8.194753,288,-66.648549,109.99
2953,8.197529,317,-57.305144,109.99
2954,8.200305,344,-38.742780,109.99
2955,8.203081,370,-13.856226,109.99
2956,8.205857,392,13.562871,109.99
2957,8.208633,412,40.279235,109.99
2958,8.211409,430,64.330715,109.99
2959,8.214185,443,84.810204,109.99
2960,8.216961,450,101.040732,109.99
2961,8.219737,449,112.186902,109.99
2962,8.222513,437,117.009545,109.99
2963,8.225289,418,114.148335,109.99
2964,8.228065,392,102.966652,109.99
2965,8.230841,366,84.168700,109.99
2966,8.233617,342,60.067354,109.99
2967,8.236393,322,33.957111,109.99
2968,8.239169,307,9.052653,109.99
2969,8.241945,295,-12.346049,109.99
2970,8.244721,285,-29.386327,109.99
2971,8.247497,277,-42.388890,109.99
2972,8.250273,273,-51.945881,109.99
2973,8.253049,275,-58.090865,109.99
2974,8.255825,280,-60.409395,109.99
2975,8.258601,289,-58.698849,109.99
2976,8.261377,299,-53.223458,109.99
2977,8.264153,307,-44.970431,109.99
2978,8.266929,311,-35.747243,109.99
2979,8.269705,313,-27.494282,109.99
2980,8.272481,315,-21.299600,109.99
2981,8.275257,316,-17.224683,109.99
2982,8.278033,317,-14.840810,109.99
2983,8.280809,317,-13.617835,109.99
2984,8.283585,317,-13.099783,109.99
2985,8.286361,317,-12.917575,109.99
2986,8.289137,315,-12.974464,109.99
2987,8.291913,315,-13.354608,109.99
2988,8.294689,316,-13.801786,109.99
2989,8.297465,317,-13.901620,109.99
2990,8.300241,317,-13.572707,109.99
2991,8.303017,317,-13.017211,109.99
2992,8.305793,317,-12.435504,109.99
2993,8.308569,318,-11.870830,109.99
2994,8.311345,318,-11.323521,109.99
2995,8.314121,319,-10.819470,109.99
2996,8.316897,318,-10.397467,109.99
2997,8.319673,316,-10.291238,109.99
2998,8.322449,315,-10.688424,109.99
2999,8.325225,314,-11.458052,109.99
3000,8.328001,313,-12.428291,109.99
3001,8.330777,313,-13.426547,109.99
3002,8.333553,315,-14.025971,109.99
3003,8.336329,315,-13.885055,109.99
3004,8.339105,313,-13.380340,109.99
3005,8.341881,313,-13.099258,109.99
3006,8.344657,313,-13.100425,109.99
3007,8.347433,314,-13.140399,109.99
3008,8.350209,314,-13.032325,109.99
3009,8.352985,315,-12.686959,109.99
3010,8.355761,315,-12.084081,109.99
3011,8.358537,315,-11.379108,109.99
3012,8.361313,315,-10.804659,109.99
3013,8.364089,314,-10.546828,109.99
3014,8.366865,313,-10.731883,109.99
3015,8.369641,312,-11.285593,109.99
3016,8.372417,312,-11.928543,109.99
3017,8.375193,312,-12.374728,109.99
3018,8.377969,312,-12.556776,109.99
3019,8.380745,312,-12.579433,109.99
3020,8.383521,312,-12.520887,109.99
3021,8.386297,312,-12.379597,109.99
3022,8.389073,312,-12.137339,109.99
3023,8.391849,311,-11.909052,109.99
3024,8.394625,311,-11.864731,109.99
3025,8.397401,311,-11.974769,109.99
3026,8.400177,311,-12.094865,109.99
3027,8.402953,311,-12.118666,109.99
3028,8.405729,309,-12.146805,109.99
3029,8.408505,307,-12.524891,109.99
3030,8.411281,306,-13.390030,109.99
3031,8.414057,304,-14.608345,109.99
3032,8.416833,302,-16.101360,109.99
3033,8.419609,301,-17.704718,109.99
3034,8.422385,299,-19.186745,109.99
3035,8.425161,300,-20.328590,109.99
3036,8.427937,300,-20.881364,109.99
3037,8.430713,299,-20.984052,109.99
3038,8.433489,297,-21.139987,109.99
3039,8.436265,296,-21.623647,109.99
3040,8.439041,294,-22.389515,109.99
3041,8.441817,293,-23.341309,109.99
3042,8.444593,292,-24.356857,109.99
3043,8.447369,290,-25.406333,109.99
3044,8.450145,288,-26.602026,109.99
3045,8.452921,286,-27.953736,109.99
3046,8.455697,284,-29.371050,109.99
3047,8.458473,284,-30.658790,109.99
3048,8.461249,282,-31.684199,109.99
3049,8.464025,279,-32.744434,109.99
3050,8.466801,277,-34.136443,109.99
3051,8.469577,276,-35.643383,109.99
3052,8.472353,274,-36.964610,109.99
3053,8.475129,271,-38.231907,109.99
3054,8.477905,270,-39.632677,109.99
3055,8.480681,269,-40.972168,109.99
3056,8.483457,268,-42.009885,109.99
3057,8.486233,269,-42.546528,109.99
3058,8.489009,268,-42.486748,109.99
3059,8.491785,269,-42.003338,109.99
3060,8.494561,269,-41.255955,109.99
3061,8.497337,271,-40.254575,109.99
3062,8.500113,273,-38.838991,109.99
3063,8.502889,277,-36.742078,109.99
3064,8.505665,279,-33.912772,109.99
3065,8.508441,282,-30.658829,109.99
3066,8.511217,285,-27.263242,109.99
3067,8.513993,289,-23.752530,109.99
3068,8.516769,293,-20.032798,109.99
3069,8.519545,297,-16.054906,109.99
3070,8.522321,302,-11.799216,109.99
3071,8.525097,308,-7.125716,109.99
3072,8.527873,312,-2.072176,109.99
3073,8.530649,317,3.035802,109.99
3074,8.533425,321,7.965938,109.99
3075,8.536201,325,12.606935,109.99
3076,8.538977,328,16.845254,109.99
3077,8.541753,330,20.510772,109.99
3078,8.544529,334,23.613168,109.99
3079,8.547305,339,26.616583,109.99
3080,8.550081,342,29.863514,109.99
3081,8.552857,346,33.254285,109.99
3082,8.555633,349,36.645136,109.99
3083,8.558409,352,39.901258,109.99
3084,8.561185,353,42.748239,109.99
3085,8.563961,355,44.938899,109.99
3086,8.566737,356,46.489299,109.99
3087,8.569513,357,47.535289,109.99
3088,8.572289,358,48.228116,109.99
3089,8.575065,360,48.822006,109.99
3090,8.577841,360,49.427841,109.99
3091,8.580617,362,49.982204,109.99
3092,8.583393,363,50.545694,83.77
3093,8.586169,364,51.145398,83.77
3094,8.588945,364,51.640218,83.77
3095,8.591721,364,51.863088,83.77
3096,8.594497,363,51.671011,83.77
3097,8.597273,363,51.042040,83.77
3098,8.600049,362,50.092233,83.77
3099,8.602825,363,49.051095,83.77
3100,8.605601,363,48.210247,83.77
3101,8.608377,364,47.710361,83.77
3102,8.611153,364,47.497728,83.77
3103,8.613929,364,47.372030,83.77
3104,8.616705,362,46.986656,83.77
3105,8.619481,362,46.140209,83.77
3106,8.622257,362,45.066483,83.77
3107,8.625033,361,44.003872,83.77
3108,8.627809,361,42.959993,83.77
3109,8.630585,361,42.014580,83.77
3110,8.633361,361,41.249738,83.77
3111,8.636137,362,40.720330,83.77
3112,8.638913,362,40.450400,83.77
3113,8.641689,362,40.288061,83.77
3114,8.644465,361,39.989280,83.77
3115,8.647241,361,39.431634,83.77
3116,8.650017,359,38.572072,83.77
3117,8.652793,358,37.330544,83.77
3118,8.655569,357,35.798210,83.77
3119,8.658345,356,34.183238,83.77
3120,8.661121,356,32.675210,83.77
3121,8.663897,356,31.476156,83.77
3122,8.666673,356,30.648296,83.77
3123,8.669449,357,30.178905,83.77
3124,8.672225,357,30.027592,83.77
3125,8.675001,359,30.153774,83.77
3126,8.677777,358,30.451842,83.77
3127,8.680553,358,30.595794,83.77
3128,8.683329,356,30.284975,83.77
3129,8.686105,354,29.319425,83.77
3130,8.688881,353,27.747965,83.77
3131,8.691657,354,26.080859,83.77
3132,8.694433,354,24.843229,83.77
3133,8.697209,355,24.186086,83.77
3134,8.699985,354,23.936214,83.77
3135,8.702761,354,23.769935,83.77
3136,8.705537,353,23.456973,83.77
3137,8.708313,353,22.924330,83.77
3138,8.711089,353,22.261402,83.77
3139,8.713865,352,21.545056,83.77
3140,8.716641,353,20.856690,83.77
3141,8.719417,354,20.485557,83.77
3142,8.722193,354,20.515045,83.77
3143,8.724969,353,20.587422,83.77
3144,8.727745,354,20.456629,83.77
3145,8.730521,355,20.329076,83.77
3146,8.733297,354,20.295887,83.77
3147,8.736073,353,20.070606,83.77
3148,8.738849,352,19.462313,83.77
3149,8.741625,352,18.584712,83.77
3150,8.744401,352,17.692564,83.77
3151,8.747177,353,17.028375,83.77
3152,8.749953,354,16.785567,83.77
3153,8.752729,354,16.939039,83.77
3154,8.755505,352,17.065660,83.77
3155,8.758281,351,16.697059,83.77
3156,8.761057,350,15.780929,83.77
3157,8.763833,350,14.592344,83.77
3158,8.766609,350,13.474605,83.77
3159,8.769385,350,12.649164,83.77
3160,8.772161,348,11.997737,83.77
3161,8.774937,346,11.128915,83.77
3162,8.777713,344,9.786721,83.77
3163,8.780489,345,8.213837,83.77
3164,8.783265,346,7.013566,83.77
3165,8.786041,348,6.624361,83.77
3166,8.788817,349,7.088362,83.77
3167,8.791593,349,8.042314,83.77
3168,8.794369,348,8.878388,83.77
3169,8.797145,348,9.196697,83.77
3170,8.799921,347,8.953605,83.77
3171,8.802697,346,8.222246,83.77
3172,8.805473,343,6.999789,83.77
3173,8.808249,343,5.425878,83.77
3174,8.811025,343,3.989242,83.77
3175,8.813801,343,3.014497,83.77
3176,8.816577,344,2.503493,83.77
3177,8.819353,345,2.470560,83.77
3178,8.822129,346,2.903475,83.77
3179,8.824905,345,3.547605,83.77
3180,8.827681,345,4.007956,83.77
3181,8.830457,345,4.140311,83.77
3182,8.833233,344,3.932202,83.77
3183,8.836009,344,3.399651,83.77
3184,8.838785,343,2.704560,83.77
3185,8.841561,343,2.020889,83.77
3186,8.844337,342,1.422336,83.77
3187,8.847113,341,0.787366,83.77
3188,8.849889,340,-0.046887,83.77
3189,8.852665,340,-1.006199,83.77
3190,8.855441,338,-1.979085,83.77
3191,8.858217,339,-2.865443,83.77
3192,8.860993,339,-3.408795,83.77
3193,8.863769,340,-3.506152,83.77
3194,8.866545,339,-3.383897,83.77
3195,8.869321,339,-3.351843,83.77
3196,8.872097,337,-3.607737,83.77
3197,8.874873,336,-4.247184,83.77
3198,8.877649,336,-5.110289,83.77
3199,8.880425,337,-5.804394,83.77
3200,8.883201,337,-6.124986,83.77
3201,8.885977,337,-6.178509,83.77
3202,8.888753,336,-6.181002,83.77
3203,8.891529,337,-6.178581,83.77
3204,8.894305,338,-5.974291,83.77
3205,8.897081,337,-5.628836,83.77
3206,8.899857,336,-5.566571,83.77
3207,8.902633,336,-5.907072,83.77
3208,8.905409,335,-6.425374,83.77
3209,8.908185,334,-7.023983,83.77
3210,8.910961,335,-7.586918,83.77
3211,8.913737,335,-7.906563,83.77
3212,8.916513,336,-7.937314,83.77
3213,8.919289,336,-7.723660,83.77
3214,8.922065,335,-7.450633,83.77
3215,8.924841,334,-7.402712,83.77
3216,8.927617,332,-7.797944,83.77
3217,8.930393,331,-8.721445,83.77
3218,8.933169,330,-10.000156,83.77
3219,8.935945,330,-11.276558,83.77
3220,8.938721,330,-12.194409,83.77
3221,8.941497,331,-12.529276,83.77
3222,8.944273,331,-12.315578,83.77
3223,8.947049,331,-11.871605,83.77
3224,8.949825,331,-11.506199,83.77
3225,8.952601,331,-11.298981,83.77
3226,8.955377,331,-11.185083,83.77
3227,8.958153,332,-11.001743,83.77
3228,8.960929,332,-10.646686,83.77
3229,8.963705,332,-10.257167,83.77
3230,8.966481,331,-10.076552,83.77
3231,8.969257,330,-10.268157,83.77
3232,8.972033,329,-10.813259,83.77
3233,8.974809,329,-11.495208,83.77
3234,8.977585,327,-12.209131,83.77
3235,8.980361,328,-12.938991,83.77
3236,8.983137,328,-13.451587,83.77
3237,8.985913,329,-13.552078,83.77
3238,8.988689,330,-13.183870,83.77
3239,8.991465,330,-12.455064,83.77
3240,8.994241,330,-11.690804,83.77
3241,8.997017,329,-11.212767,83.77
3242,8.999793,328,-11.228352,83.77
3243,9.002569,329,-11.575018,83.77
3244,9.005345,329,-11.832577,83.77
3245,9.008121,329,-11.856874,83.77
3246,9.010897,328,-11.820666,83.77
3247,9.013673,327,-11.970746,83.77
3248,9.016449,326,-12.428872,83.77
3249,9.019225,326,-13.071188,83.77
3250,9.022001,326,-13.635139,83.77
3251,9.024777,325,-14.036806,83.77
3252,9.027553,324,-14.436126,83.77
3253,9.030329,325,-14.806506,83.77
3254,9.033105,325,-14.923763,83.77
3255,9.035881,325,-14.803205,83.77
3256,9.038657,324,-14.683410,83.77
3257,9.041433,325,-14.634490,83.77
3258,9.044209,325,-14.489086,83.77
3259,9.046985,325,-14.220906,83.77
3260,9.049761,325,-13.953950,83.77
3261,9.052537,325,-13.744709,83.77
3262,9.055313,325,-13.592183,83.77
3263,9.058089,324,-13.542257,83.77
3264,9.060865,324,-13.646687,83.77
3265,9.063641,324,-13.801785,83.77
3266,9.066417,323,-13.968744,83.77
3267,9.069193,323,-14.216120,83.77
3268,9.071969,325,-14.302986,83.77
3269,9.074745,325,-13.945101,83.77
3270,9.077521,324,-13.402417,83.77
3271,9.080297,324,-13.058275,83.77
3272,9.083073,324,-12.921460,83.77
3273,9.085849,326,-12.717565,83.77
3274,9.088625,326,-12.228147,83.77
3275,9.091401,325,-11.688428,83.77
3276,9.094177,324,-11.481083,83.77
3277,9.096953,323,-11.698740,83.77
3278,9.099729,323,-12.180277,83.77
3279,9.102505,324,-12.591043,83.77
3280,9.105281,323,-12.775520,83.77
3281,9.108057,323,-12.878129,83.77
3282,9.110833,322,-13.001787,83.77
3283,9.113609,322,-13.149998,83.77
3284,9.116385,321,-13.343293,83.77
3285,9.119161,320,-13.705855,83.77
3286,9.121937,320,-14.254226,83.77
3287,9.124713,320,-14.752892,83.77
3288,9.127489,322,-14.847503,83.77
3289,9.130265,323,-14.277376,83.77
3290,9.133041,324,-13.176890,83.77
3291,9.135817,326,-11.803334,83.77
3292,9.138593,327,-10.283645,83.77
3293,9.141369,328,-8.779749,83.77
3294,9.144145,328,-7.475051,83.77
3295,9.146921,328,-6.517693,83.77
3296,9.149697,329,-5.874075,83.77
3297,9.152473,331,-5.240812,83.77
3298,9.155249,333,-4.295352,83.77
3299,9.158025,333,-3.079228,83.77
3300,9.160801,332,-2.035574,83.77
3301,9.163577,332,-1.475898,83.77
3302,9.166353,332,-1.309538,83.77
3303,9.169129,333,-1.288464,83.77
3304,9.171905,334,-1.162150,83.77
3305,9.174681,334,-0.846904,83.77
3306,9.177457,331,-0.688366,83.77
3307,9.180233,327,-1.332295,83.77
3308,9.183009,322,-3.245710,83.77
3309,9.185785,320,-6.274714,83.77
3310,9.188561,319,-9.608165,83.77
3311,9.191337,318,-12.447716,83.77
3312,9.194113,317,-14.479504,83.77
3313,9.196889,314,-15.891781,83.77
3314,9.199665,310,-17.311278,83.77
3315,9.202441,310,-19.037178,83.77
3316,9.205217,311,-20.563888,83.77
3317,9.207993,313,-21.262171,83.77
3318,9.210769,313,-21.010786,83.77
3319,9.213545,314,-20.094714,83.77
3320,9.216321,314,-18.848811,83.77
3321,9.219097,314,-17.649977,83.77
3322,9.221873,313,-16.912305,83.77
3323,9.224649,313,-16.789986,83.77
3324,9.227425,312,-17.089522,83.77
3325,9.230201,312,-17.486551,83.77
3326,9.232977,312,-17.688101,83.77
3327,9.235753,313,-17.542894,83.77
3328,9.238529,314,-17.059663,83.77
3329,9.241305,315,-16.327982,83.77
3330,9.244081,315,-15.484414,83.77
3331,9.246857,314,-14.739703,83.77
3332,9.249633,310,-14.552224,83.77
3333,9.252409,305,-15.588906,83.77
3334,9.255185,301,-18.127020,83.77
3335,9.257961,298,-21.700581,83.77
3336,9.260737,292,-25.765658,83.77
3337,9.263513,285,-30.307670,83.77
3338,9.266289,276,-35.606621,83.77
3339,9.269065,264,-42.141466,83.77
3340,9.271841,251,-50.474753,83.77
3341,9.274617,241,-60.461978,83.77
3342,9.277393,238,-70.563120,83.77
3343,9.280169,246,-77.890794,83.77
3344,9.282945,269,-78.738106,83.77
3345,9.285721,299,-70.033764,83.77
3346,9.288497,326,-51.682334,83.77
3347,9.291273,353,-26.650464,83.77
3348,9.294049,378,1.447154,83.77
3349,9.296825,400,29.668834,83.77
3350,9.299601,417,55.669119,83.77
3351,9.302377,429,77.639540,83.77
3352,9.305153,435,94.399837,83.61
3353,9.307929,435,105.363452,83.61
3354,9.310705,427,110.192795,83.61
3355,9.313481,411,108.402852,83.61
3356,9.316257,390,99.601398,83.61
3357,9.319033,364,83.991123,83.61
3358,9.321809,340,62.780064,83.61
3359,9.324585,320,38.532214,83.61
3360,9.327361,305,14.507882,83.61
3361,9.330137,293,-6.668709,83.61
3362,9.332913,282,-23.894405,83.61
3363,9.335689,272,-37.495205,83.61
3364,9.338465,266,-48.156008,83.61
3365,9.341241,266,-55.854399,83.61
3366,9.344017,270,-59.938118,83.61
3367,9.346793,279,-59.824375,83.61
3368,9.349569,290,-55.378855,83.61
3369,9.352345,299,-47.371426,83.61
3370,9.355121,304,-37.674780,83.61
3371,9.357897,306,-28.543408,83.61
3372,9.360673,305,-21.704967,83.61
3373,9.363449,305,-17.793828,83.61
3374,9.366225,306,-16.206642,83.61
3375,9.369001,306,-15.853650,83.61
3376,9.371777,308,-15.807902,83.61
3377,9.374553,310,-15.310278,83.61
3378,9.377329,310,-14.184810,83.61
3379,9.380105,310,-12.911589,83.61
3380,9.382881,311,-11.861684,83.61
3381,9.385657,312,-10.990106,83.61
3382,9.388433,312,-10.209617,83.61
3383,9.391209,311,-9.636234,83.61
3384,9.393985,309,-9.515014,83.61
3385,9.396761,308,-9.962918,83.61
3386,9.399537,308,-10.749394,83.61
3387,9.402313,310,-11.345972,83.61
3388,9.405089,311,-11.297002,83.61
3389,9.407865,311,-10.646200,83.61
3390,9.410641,311,-9.762844,83.61
3391,9.413417,311,-8.932697,83.61
3392,9.416193,312,-8.242080,83.61
3393,9.418969,311,-7.762799,83.61
3394,9.421745,310,-7.698567,83.61
3395,9.424521,310,-7.999008,83.61
3396,9.427297,310,-8.297616,83.61
3397,9.430073,309,-8.456090,83.61
3398,9.432849,309,-8.611575,83.61
3399,9.435625,310,-8.725857,83.61
3400,9.438401,310,-8.644905,83.61
3401,9.441177,309,-8.465441,83.61
3402,9.443953,308,-8.416661,83.61
3403,9.446729,309,-8.457244,83.61
3404,9.449505,308,-8.457260,83.61
3405,9.452281,307,-8.611963,83.61
3406,9.455057,308,-8.946007,83.61
3407,9.457833,308,-9.109460,83.61
3408,9.460609,307,-9.036473,83.61
3409,9.463385,307,-8.926149,83.61
3410,9.466161,308,-8.767227,83.61
3411,9.468937,308,-8.485601,83.61
3412,9.471713,307,-8.259404,83.61
3413,9.474489,306,-8.307953,83.61
3414,9.477265,307,-8.476854,83.61
3415,9.480041,307,-8.435636,83.61
3416,9.482817,307,-8.196468,83.61
3417,9.485593,306,-8.044487,83.61
3418,9.488369,306,-8.127841,83.61
3419,9.491145,305,-8.361494,83.61
3420,9.493921,305,-8.611792,83.61
3421,9.496697,304,-8.833321,83.61
3422,9.499473,303,-9.156270,83.61
3423,9.502249,301,-9.798935,83.61
3424,9.505025,301,-10.726571,83.61
3425,9.507801,301,-11.545318,83.61
3426,9.510577,301,-11.945744,83.61
3427,9.513353,300,-12.030176,83.61
3428,9.516129,298,-12.208974,83.61
3429,9.518905,296,-12.865692,83.61
3430,9.521681,294,-14.060248,83.61
3431,9.524457,292,-15.611692,83.61
3432,9.527233,289,-17.391341,83.61
3433,9.530009,287,-19.355031,83.61
3434,9.532785,286,-21.289195,83.61
3435,9.535561,285,-22.904415,83.61
3436,9.538337,285,-24.027948,83.61
3437,9.541113,282,-24.793838,83.61
3438,9.543889,281,-25.562974,83.61
3439,9.546665,280,-26.385825,83.61
3440,9.549441,279,-27.142495,83.61
3441,9.552217,278,-27.845558,83.61
3442,9.554993,276,-28.590014,83.61
3443,9.557769,273,-29.585765,83.61
3444,9.560545,271,-30.940893,83.61
3445,9.563321,269,-32.502586,83.61
3446,9.566097,269,-33.958706,83.61
3447,9.568873,270,-34.878344,83.61
3448,9.571649,271,-34.951688,83.61
3449,9.574425,270,-34.350935,83.61
3450,9.577201,269,-33.603956,83.61
3451,9.579977,268,-33.104409,83.61
3452,9.582753,267,-32.983507,83.61
3453,9.585529,267,-33.166343,83.61
3454,9.588305,268,-33.310204,83.61
3455,9.591081,268,-33.087323,83.61
3456,9.593857,270,-32.338958,83.61
3457,9.596633,273,-30.840949,83.61
3458,9.599409,278,-28.339484,83.61
3459,9.602185,284,-24.675608,83.61
3460,9.604961,289,-19.956645,83.61
3461,9.607737,294,-14.589740,83.61
3462,9.610513,298,-9.024215,83.61
3463,9.613289,301,-3.725787,83.61
3464,9.616065,305,0.974253,83.61
3465,9.618841,310,5.187799,83.61
3466,9.621617,316,9.371692,83.61
3467,9.624393,322,13.977843,83.61
3468,9.627169,326,19.039280,83.61
3469,9.629945,329,24.064292,83.61
3470,9.632721,332,28.510816,83.61
3471,9.635497,335,32.171308,83.61
3472,9.638273,340,35.295129,83.61
3473,9.641049,342,38.234191,83.61
3474,9.643825,344,40.945353,83.61
3475,9.646601,346,43.313793,83.61
3476,9.649377,349,45.454289,83.61
3477,9.652153,351,47.454250,83.61
3478,9.654929,353,49.229243,83.61
3479,9.657705,354,50.679103,83.61
3480,9.660481,355,51.804418,83.61
3481,9.663257,355,52.619082,109.71
3482,9.666033,355,53.042320,109.71
3483,9.668809,356,53.069667,109.71
3484,9.671585,358,52.982413,109.71
3485,9.674361,359,53.093528,109.71
3486,9.677137,359,53.394585,109.71
3487,9.679913,358,53.593687,109.71
3488,9.682689,359,53.526374,109.71
3489,9.685465,359,53.272046,109.71
3490,9.688241,361,52.980878,109.71
3491,9.691017,362,52.879909,109.71
3492,9.693793,363,53.090822,109.71
3493,9.696569,363,53.500575,109.71
3494,9.699345,363,53.849540,109.71
3495,9.702121,363,53.886323,109.71
3496,9.704897,363,53.514831,109.71
3497,9.707673,363,52.818393,109.71
3498,9.710449,363,52.019040,109.71
3499,9.713225,362,51.252834,109.71
3500,9.716001,361,50.420053,109.71
3501,9.718777,361,49.427126,109.71
3502,9.721553,361,48.352341,109.71
3503,9.724329,360,47.235049,109.71
3504,9.727105,359,46.029933,109.71
3505,9.729881,360,44.926769,109.71
3506,9.732657,360,44.214971,109.71
3507,9.735433,360,43.799393,109.71
3508,9.738209,359,43.308475,109.71
3509,9.740985,359,42.544975,109.71
3510,9.743761,359,41.676307,109.71
3511,9.746537,358,40.876303,109.71
3512,9.749313,359,40.193643,109.71
3513,9.752089,358,39.619087,109.71
3514,9.754865,357,38.889281,109.71
3515,9.757641,356,37.802606,109.71
3516,9.760417,356,36.545598,109.71
3517,9.763193,356,35.461360,109.71
3518,9.765969,356,34.697824,109.71
3519,9.768745,356,34.149944,109.71
3520,9.771521,356,33.660489,109.71
3521,9.774297,355,33.084537,109.71
3522,9.777073,354,32.300313,109.71
3523,9.779849,355,31.456319,109.71
3524,9.782625,356,30.924195,109.71
3525,9.785401,356,30.758875,109.71
3526,9.788177,356,30.669528,109.71
3527,9.790953,356,30.472869,109.71
3528,9.793729,357,30.273849,109.71
3529,9.796505,356,30.142707,109.71
3530,9.799281,355,29.823255,109.71
3531,9.802057,354,29.071391,109.71
3532,9.804833,355,28.060310,109.71
3533,9.807609,357,27.342915,109.71
3534,9.810385,358,27.310312,109.71
3535,9.813161,358,27.772454,109.71
3536,9.815937,358,28.270533,109.71
3537,9.818713,357,28.431613,109.71
3538,9.821489,356,28.025200,109.71
3539,9.824265,354,26.977859,109.71
3540,9.827041,355,25.570917,109.71
3541,9.829817,355,24.370226,109.71
3542,9.832593,356,23.687518,109.71
3543,9.835369,356,23.460763,109.71
3544,9.838145,355,23.350954,109.71
3545,9.840921,353,22.886247,109.71
3546,9.843697,353,21.943370,109.71
3547,9.846473,353,20.868856,109.71
3548,9.849249,354,20.052799,109.71
3549,9.852025,354,19.620647,109.71
3550,9.854801,354,19.426647,109.71
3551,9.857577,353,19.213596,109.71
3552,9.860353,354,18.913113,109.71
3553,9.863129,355,18.749240,109.71
3554,9.865905,356,18.881553,109.71
3555,9.868681,357,19.254414,109.71
3556,9.871457,358,19.788273,109.71
3557,9.874233,357,20.284004,109.71
3558,9.877009,355,20.311153,109.71
3559,9.879785,354,19.608310,109.71
3560,9.882561,355,18.498580,109.71
3561,9.885337,354,17.428899,109.71
3562,9.888113,355,16.566775,109.71
3563,9.890889,355,16.044897,109.71
3564,9.893665,356,15.930045,109.71
3565,9.896441,354,15.956160,109.71
3566,9.899217,354,15.698713,109.71
3567,9.901993,355,15.202380,109.71
3568,9.904769,356,14.865596,109.71
3569,9.907545,355,14.745158,109.71
3570,9.910321,356,14.688924,109.71
3571,9.913097,355,14.635907,109.71
3572,9.915873,355,14.447899,109.71
3573,9.918649,353,13.909874,109.71
3574,9.921425,352,12.884031,109.71
3575,9.924201,351,11.510012,109.71
3576,9.926977,350,10.075862,109.71
3577,9.929753,350,8.801110,109.71
3578,9.932529,350,7.847226,109.71
3579,9.935305,350,7.215900,109.71
3580,9.938081,349,6.725471,109.71
3581,9.940857,348,6.145406,109.71
3582,9.943633,349,5.536021,109.71
3583,9.946409,349,5.161009,109.71
3584,9.949185,350,5.081599,109.71
3585,9.951961,352,5.348748,109.71
3586,9.954737,354,6.110663,109.71
3587,9.957513,354,7.226186,109.71
3588,9.960289,354,8.255929,109.71
3589,9.963065,354,8.904881,109.71
