indice,tiempo_s,adc_raw,ecg_filtrado,bpm_estimado
0,0.000000,333,25.690619,
1,0.002776,329,103.398470,
2,0.005552,324,199.758890,
3,0.008328,322,271.615832,
4,0.011104,320,311.814702,
5,0.013880,319,326.584061,
6,0.016656,318,323.974815,
7,0.019432,317,311.488303,
8,0.022208,318,296.618330,
9,0.024984,317,285.607228,
10,0.027760,317,280.698714,
11,0.030536,319,279.751427,
12,0.033312,321,278.763788,
13,0.036088,322,275.199869,
14,0.038864,323,269.924209,
15,0.041640,323,265.875089,
16,0.044416,321,264.529391,
17,0.047192,320,264.181766,
18,0.049968,321,261.919145,
19,0.052744,322,256.615096,
20,0.055520,321,249.846364,
21,0.058296,320,244.392374,
22,0.061072,319,241.740924,
23,0.063848,316,240.446099,
24,0.066624,314,237.382487,
25,0.069400,315,231.218218,
26,0.072176,317,223.974806,
27,0.074952,314,218.585505,
28,0.077728,308,215.581330,
29,0.080504,299,212.512778,
30,0.083280,285,205.691665,
31,0.086056,270,192.947747,
32,0.088832,262,176.129249,
33,0.091608,263,160.566893,
34,0.094384,275,151.525215,
35,0.097160,300,151.640608,
36,0.099936,326,160.480544,
37,0.102712,350,175.390184,
38,0.105488,368,193.474527,
39,0.108264,384,212.792994,
40,0.111040,402,232.187332,
41,0.113816,418,250.305029,
42,0.116592,431,265.112464,
43,0.119368,436,274.940415,
44,0.122144,429,279.086132,
45,0.124920,414,277.385275,
46,0.127696,394,269.692418,
47,0.130472,369,255.291306,
48,0.133248,343,233.427737,
49,0.136024,320,205.313742,
50,0.138800,303,175.073429,
51,0.141576,291,147.924327,
52,0.144352,283,127.116194,
53,0.147128,275,112.296517,
54,0.149904,269,100.750227,
55,0.152680,268,90.616056,
56,0.155456,272,82.719670,
57,0.158232,281,79.358973,
58,0.161008,294,81.948637,
59,0.163784,306,89.481963,
60,0.166560,314,98.798971,
61,0.169336,319,106.738588,
62,0.172112,321,112.070142,
63,0.174888,320,115.162359,
64,0.177664,321,116.686941,
65,0.180440,323,116.969875,
66,0.183216,324,115.814081,
67,0.185992,323,113.002706,
68,0.188768,323,109.242359,
69,0.191544,323,106.025404,
70,0.194320,322,104.096837,
71,0.197096,321,102.637198,
72,0.199872,322,100.406318,
73,0.202648,323,97.165172,
74,0.205424,323,93.735932,
75,0.208200,324,91.247146,
76,0.210976,323,90.084863,
77,0.213752,323,89.346287,
78,0.216528,323,87.771633,
79,0.219304,323,84.912893,
80,0.222080,322,81.383151,
81,0.224856,323,78.386878,
82,0.227632,323,76.680338,
83,0.230408,323,75.720740,
84,0.233184,323,74.282829,
85,0.235960,323,71.773668,
86,0.238736,323,68.716774,
87,0.241512,324,66.240006,
88,0.244288,325,65.018700,
89,0.247064,324,64.455619,
90,0.249840,324,63.256140,
91,0.252616,323,60.808484,
92,0.255392,323,57.639931,
93,0.258168,322,54.777283,
94,0.260944,321,52.680694,
95,0.263720,323,51.109733,
96,0.266496,323,49.559942,
97,0.269272,324,47.607707,
98,0.272048,325,45.551510,
99,0.274824,325,44.085873,
100,0.277600,323,43.200067,
101,0.280376,321,42.018813,
102,0.283152,320,39.718443,
103,0.285928,319,36.282342,
104,0.288704,318,32.425850,
105,0.291480,318,29.131866,
106,0.294256,318,26.980044,
107,0.297032,318,25.657581,
108,0.299808,318,24.328147,
109,0.302584,318,22.477961,
110,0.305360,317,20.249019,
111,0.308136,317,18.181892,
112,0.310912,317,16.708463,
113,0.313688,317,15.652073,
114,0.316464,317,14.400842,
115,0.319240,317,12.608869,
116,0.322016,316,10.470483,
117,0.324792,316,8.496374,
118,0.327568,314,6.930081,
119,0.330344,313,5.371116,
120,0.333120,312,3.294680,
121,0.335896,311,0.583319,
122,0.338672,310,-2.398080,
123,0.341448,309,-5.054193,
124,0.344224,308,-7.088659,
125,0.347000,307,-8.764849,
126,0.349776,306,-10.631110,
127,0.352552,305,-12.983566,
128,0.355328,305,-15.517273,
129,0.358104,303,-17.726453,
130,0.360880,302,-19.518280,
131,0.363656,301,-21.143761,
132,0.366432,301,-22.897927,
133,0.369208,300,-24.917997,
134,0.371984,299,-27.087096,
135,0.374760,298,-29.081162,
136,0.377536,297,-30.678110,
137,0.380312,296,-32.062086,
138,0.383088,297,-33.497849,
139,0.385864,297,-34.973287,
140,0.388640,297,-36.325659,
141,0.391416,297,-37.321750,
142,0.394192,298,-37.760264,
143,0.396968,299,-37.720017,
144,0.399744,300,-37.577823,
145,0.402520,303,-37.488372,
146,0.405296,306,-37.053195,
147,0.408072,310,-35.742896,
148,0.410848,312,-33.506909,
149,0.413624,315,-30.894081,
150,0.416400,318,-28.477099,
151,0.419176,319,-26.627264,
152,0.421952,321,-25.443464,
153,0.424728,323,-24.529086,
154,0.427504,326,-23.377841,
155,0.430280,329,-21.826539,
156,0.433056,332,-20.082807,
157,0.435832,336,-18.321615,
158,0.438608,338,-16.518003,
159,0.441384,341,-14.631113,
160,0.444160,344,-12.573380,
161,0.446936,345,-10.551810,
162,0.449712,346,-9.150011,
163,0.452488,347,-8.647662,
164,0.455264,347,-8.852174,
165,0.458040,347,-9.439853,
166,0.460816,347,-10.151496,
167,0.463592,348,-10.857258,
168,0.466368,349,-11.528520,
169,0.469144,350,-12.173271,
170,0.471920,350,-12.789767,
171,0.474696,351,-13.285634,
172,0.477472,350,-13.653055,
173,0.480248,350,-14.168722,
174,0.483024,350,-15.055569,
175,0.485800,351,-16.208488,
176,0.488576,351,-17.347012,
177,0.491352,351,-18.281179,
178,0.494128,351,-18.986181,
179,0.496904,352,-19.511910,
180,0.499680,352,-20.012502,
181,0.502456,352,-20.719042,
182,0.505232,351,-21.736679,
183,0.508008,350,-23.002349,
184,0.510784,348,-24.479084,
185,0.513560,347,-26.225640,
186,0.516336,348,-28.090589,
187,0.519112,348,-29.750481,
188,0.521888,347,-31.156572,
189,0.524664,349,-32.206515,
190,0.527440,349,-32.644613,
191,0.530216,350,-32.632213,
192,0.532992,350,-32.598291,
193,0.535768,351,-32.792406,
194,0.538544,349,-33.329419,
195,0.541320,347,-34.387503,
196,0.544096,346,-35.936482,
197,0.546872,347,-37.557204,
198,0.549648,346,-38.981460,
199,0.552424,346,-40.321679,
200,0.555200,346,-41.563251,
201,0.557976,346,-42.497194,
202,0.560752,345,-43.142623,
203,0.563528,345,-43.744090,
204,0.566304,345,-44.469331,
205,0.569080,345,-45.335723,
206,0.571856,345,-46.235545,
207,0.574632,345,-46.974275,
208,0.577408,344,-47.529305,
209,0.580184,345,-48.007289,
210,0.582960,344,-48.525582,
211,0.585736,345,-49.186704,
212,0.588512,345,-49.844956,
213,0.591288,344,-50.392433,
214,0.594064,344,-50.901726,
215,0.596840,344,-51.382699,
216,0.599616,344,-51.894862,
217,0.602392,345,-52.445123,
218,0.605168,344,-52.970050,
219,0.607944,343,-53.557717,
220,0.610720,341,-54.371948,
221,0.613496,340,-55.522802,
222,0.616272,340,-56.912412,
223,0.619048,341,-58.196925,
224,0.621824,342,-59.001296,
225,0.624600,343,-59.126333,
226,0.627376,343,-58.694562,
227,0.630152,343,-58.112790,
228,0.632928,343,-57.779920,
229,0.635704,342,-57.939140,
230,0.638480,341,-58.657667,
231,0.641256,340,-59.744107,
232,0.644032,339,-60.916507,
233,0.646808,339,-61.982172,
234,0.649584,339,-62.850753,
235,0.652360,340,-63.474277,
236,0.655136,342,-63.650647,
237,0.657912,344,-63.104931,
238,0.660688,345,-61.880742,
239,0.663464,344,-60.537655,
240,0.666240,344,-59.727926,
241,0.669016,345,-59.532595,
242,0.671792,344,-59.712532,
243,0.674568,343,-60.212932,
244,0.677344,343,-60.900316,
245,0.680120,345,-61.345702,
246,0.682896,345,-61.312666,
247,0.685672,344,-61.176257,
248,0.688448,342,-61.484099,
249,0.691224,340,-62.440861,
250,0.694000,339,-63.844700,
251,0.696776,340,-65.189108,
252,0.699552,341,-66.005963,
253,0.702328,342,-66.191459,
254,0.705104,342,-65.940936,
255,0.707880,342,-65.511668,
256,0.710656,341,-65.145583,
257,0.713432,340,-65.111611,
258,0.716208,339,-65.591550,
259,0.718984,339,-66.480028,
260,0.721760,338,-67.491155,
261,0.724536,338,-68.369461,
262,0.727312,338,-68.906456,
263,0.730088,340,-68.925935,
264,0.732864,342,-68.315129,
265,0.735640,342,-67.300710,
266,0.738416,342,-66.368886,
267,0.741192,342,-65.724492,
268,0.743968,342,-65.293261,
269,0.746744,342,-65.030427,
270,0.749520,341,-65.051375,
271,0.752296,342,-65.363912,
272,0.755072,342,-65.672592,
273,0.757848,343,-65.687572,
274,0.760624,343,-65.335960,
275,0.763400,342,-64.900296,
276,0.766176,341,-64.835333,
277,0.768952,340,-65.322290,
278,0.771728,339,-66.221353,
279,0.774504,340,-67.112839,
280,0.777280,339,-67.636419,
281,0.780056,339,-67.873411,
282,0.782832,338,-68.082937,
283,0.785608,338,-68.406009,
284,0.788384,339,-68.681009,
285,0.791160,341,-68.496661,
286,0.793936,340,-67.811117,
287,0.796712,340,-67.088836,
288,0.799488,340,-66.631234,
289,0.802264,340,-66.425181,
290,0.805040,338,-66.543184,
291,0.807816,336,-67.181814,
292,0.810592,334,-68.361464,
293,0.813368,335,-69.682010,
294,0.816144,337,-70.447811,
295,0.818920,338,-70.304965,
296,0.821696,338,-69.548368,
297,0.824472,339,-68.569268,
298,0.827248,340,-67.457724,
299,0.830024,339,-66.394101,
300,0.832800,337,-65.892816,
301,0.835576,336,-66.245408,
302,0.838352,337,-67.036952,
303,0.841128,337,-67.607801,
304,0.843904,338,-67.664136,
305,0.846680,339,-67.184202,
306,0.849456,339,-66.366289,
307,0.852232,339,-65.577496,
308,0.855008,337,-65.172251,
309,0.857784,337,-65.282908,
310,0.860560,335,-65.773031,
311,0.863336,335,-66.484754,
312,0.866112,334,-67.242807,
313,0.868888,333,-67.980908,
314,0.871664,333,-68.656345,
315,0.874440,334,-68.998535,
316,0.877216,334,-68.839018,
317,0.879992,335,-68.290494,
318,0.882768,333,-67.701245,
319,0.885544,332,-67.532798,
320,0.888320,331,-67.883230,
321,0.891096,332,-68.373352,
322,0.893872,332,-68.588591,
323,0.896648,331,-68.554658,
324,0.899424,330,-68.592817,
325,0.902200,330,-68.780431,
326,0.904976,331,-68.851983,
327,0.907752,332,-68.520504,
328,0.910528,333,-67.747104,
329,0.913304,333,-66.738785,
330,0.916080,333,-65.785863,
331,0.918856,333,-65.038645,
332,0.921632,333,-64.492148,
333,0.924408,335,-63.952076,
334,0.927184,336,-63.136952,
335,0.929960,337,-62.028614,
336,0.932736,336,-60.915006,
337,0.935512,335,-60.182992,
338,0.938288,333,-60.090205,
339,0.941064,331,-60.724538,
340,0.943840,331,-61.851388,
341,0.946616,332,-62.843541,
342,0.949392,333,-63.162555,
343,0.952168,333,-62.768854,
344,0.954944,332,-62.077638,
345,0.957720,332,-61.510491,
346,0.960496,332,-61.158082,
347,0.963272,332,-60.949122,
348,0.966048,331,-60.880446,
349,0.968824,331,-60.932194,
350,0.971600,330,-61.015388,
351,0.974376,329,-61.171930,
352,0.977152,328,-61.517947,
353,0.979928,329,-61.918436,
354,0.982704,330,-61.989251,
355,0.985480,331,-61.492953,
356,0.988256,330,-60.631068,
357,0.991032,329,-59.895475,
358,0.993808,327,-59.696667,
359,0.996584,327,-60.067294,
360,0.999360,328,-60.551938,
361,1.002136,330,-60.535095,
362,1.004912,331,-59.741968,
363,1.007688,332,-58.355822,
364,1.010464,332,-56.792969,
365,1.013240,332,-55.464305,
366,1.016016,331,-54.650076,
367,1.018792,331,-54.378238,
368,1.021568,332,-54.302358,
369,1.024344,333,-53.965539,
370,1.027120,331,-53.429506,
371,1.029896,329,-53.261201,
372,1.032672,328,-53.727011,
373,1.035448,327,-54.580644,
374,1.038224,326,-55.529160,
375,1.041000,327,-56.260877,
376,1.043776,327,-56.473906,
377,1.046552,329,-56.055073,
378,1.049328,330,-55.012657,
379,1.052104,331,-53.560443,
380,1.054880,330,-52.146895,
381,1.057656,331,-51.076655,
382,1.060432,333,-50.120035,
383,1.063208,335,-48.861438,
384,1.065984,337,-47.184248,
385,1.068760,338,-45.255183,
386,1.071536,338,-43.429511,
387,1.074312,339,-41.947328,
388,1.077088,340,-40.726656,
389,1.079864,341,-39.616604,
390,1.082640,343,-38.476965,
391,1.085416,344,-37.178591,
392,1.088192,344,-35.843824,
393,1.090968,344,-34.735274,
394,1.093744,344,-33.967962,
395,1.096520,343,-33.599943,
396,1.099296,342,-33.718679,
397,1.102072,340,-34.349521,
398,1.104848,337,-35.527352,
399,1.107624,335,-37.206998,
400,1.110400,333,-39.137146,
401,1.113176,332,-41.028034,
402,1.115952,329,-42.811068,
403,1.118728,326,-44.702672,
404,1.121504,323,-46.840641,
405,1.124280,322,-49.000130,
406,1.127056,321,-50.798212,
407,1.129832,322,-51.948464,
408,1.132608,322,-52.339132,
409,1.135384,324,-51.975170,
410,1.138160,322,-51.108310,
411,1.140936,321,-50.346366,
412,1.143712,320,-50.068906,
413,1.146488,320,-50.182604,
414,1.149264,320,-50.424641,
415,1.152040,320,-50.555250,
416,1.154816,321,-50.364570,
417,1.157592,321,-49.741154,
418,1.160368,321,-48.875451,
419,1.163144,322,-47.985879,
420,1.165920,322,-47.140845,
421,1.168696,320,-46.575526,
422,1.171472,319,-46.531810,
423,1.174248,319,-46.801957,
424,1.177024,317,-47.151447,
425,1.179800,315,-47.770311,
426,1.182576,314,-48.761682,
427,1.185352,313,-49.862631,
428,1.188128,309,-51.027949,
429,1.190904,303,-52.788488,
430,1.193680,295,-55.851423,
431,1.196456,283,-60.888212,
432,1.199232,270,-68.412431,
433,1.202008,263,-77.805224,
434,1.204784,265,-86.631243,
435,1.207560,279,-91.323484,
436,1.210336,305,-88.358994,
437,1.213112,332,-75.976641,
438,1.215888,355,-55.697023,
439,1.218664,373,-31.473566,
440,1.221440,389,-7.300614,
441,1.224216,407,14.620177,
442,1.226992,421,33.737824,
443,1.229768,430,49.669753,
444,1.232544,432,61.659706,
445,1.235320,425,68.664139,
446,1.238096,410,69.422414,
447,1.240872,390,63.032311,
448,1.243648,366,49.502836,
449,1.246424,341,29.884168,
450,1.249200,317,6.221684,
451,1.251976,298,-18.677276,
452,1.254752,285,-41.789377,
453,1.257528,276,-60.856604,
454,1.260304,268,-75.240414,
455,1.263080,263,-85.534022,
456,1.265856,264,-92.132396,
457,1.268632,271,-94.533526,
458,1.271408,281,-92.158743,
459,1.274184,294,-85.220200,
460,1.276960,305,-74.856605,
461,1.279736,313,-62.973232,
462,1.282512,316,-51.725752,
463,1.285288,317,-42.795273,
464,1.288064,317,-36.866641,
465,1.290840,318,-33.632421,
466,1.293616,318,-32.302216,
467,1.296392,318,-32.095053,
468,1.299168,318,-32.305379,
469,1.301944,318,-32.360751,
470,1.304720,319,-31.973434,
471,1.307496,319,-31.223057,
472,1.310272,319,-30.496266,
473,1.313048,319,-30.046382,
474,1.315824,318,-29.839552,
475,1.318600,318,-29.712575,
476,1.321376,318,-29.469737,
477,1.324152,319,-29.038018,
478,1.326928,319,-28.520107,
479,1.329704,318,-28.163996,
480,1.332480,317,-28.123142,
481,1.335256,317,-28.211452,
482,1.338032,316,-28.223316,
483,1.340808,317,-28.151380,
484,1.343584,318,-27.922952,
485,1.346360,318,-27.498226,
486,1.349136,318,-26.957553,
487,1.351912,318,-26.306703,
488,1.354688,317,-25.646812,
489,1.357464,316,-25.297638,
490,1.360240,317,-25.339385,
491,1.363016,318,-25.388872,
492,1.365792,319,-25.036369,
493,1.368568,320,-24.122365,
494,1.371344,320,-22.812479,
495,1.374120,320,-21.549789,
496,1.376896,319,-20.771964,
497,1.379672,319,-20.604930,
498,1.382448,319,-20.741061,
499,1.385224,318,-20.854080,
500,1.388000,317,-20.948747,
501,1.390776,316,-21.182055,
502,1.393552,315,-21.674762,
503,1.396328,314,-22.424716,
504,1.399104,314,-23.201496,
505,1.401880,314,-23.650482,
506,1.404656,314,-23.627830,
507,1.407432,314,-23.288402,
508,1.410208,314,-22.881905,
509,1.412984,315,-22.478748,
510,1.415760,315,-21.973947,
511,1.418536,316,-21.277493,
512,1.421312,315,-20.463180,
513,1.424088,314,-19.878965,
514,1.426864,313,-19.816938,
515,1.429640,312,-20.255862,
516,1.432416,311,-20.990498,
517,1.435192,310,-21.776654,
518,1.437968,309,-22.467716,
519,1.440744,309,-22.990433,
520,1.443520,308,-23.356957,
521,1.446296,306,-23.806769,
522,1.449072,304,-24.596414,
523,1.451848,304,-25.566901,
524,1.454624,305,-26.188764,
525,1.457400,305,-26.186054,
526,1.460176,304,-25.865951,
527,1.462952,303,-25.678888,
528,1.465728,301,-25.853032,
529,1.468504,299,-26.464312,
530,1.471280,298,-27.406671,
531,1.474056,297,-28.434772,
532,1.476832,296,-29.399720,
533,1.479608,295,-30.251677,
534,1.482384,292,-31.095024,
535,1.485160,290,-32.143692,
536,1.487936,289,-33.338047,
537,1.490712,288,-34.442062,
538,1.493488,288,-35.299321,
539,1.496264,288,-35.760039,
540,1.499040,288,-35.739457,
541,1.501816,289,-35.214017,
542,1.504592,289,-34.265078,
543,1.507368,289,-33.207892,
544,1.510144,290,-32.259053,
545,1.512920,292,-31.231510,
546,1.515696,295,-29.715093,
547,1.518472,297,-27.506568,
548,1.521248,298,-24.907706,
549,1.524024,300,-22.361867,
550,1.526800,303,-19.921926,
551,1.529576,304,-17.521593,
552,1.532352,307,-15.175742,
553,1.535128,311,-12.597067,
554,1.537904,317,-9.284416,
555,1.540680,322,-5.024364,
556,1.543456,326,-0.172402,
557,1.546232,329,4.628953,
558,1.549008,333,9.029069,
559,1.551784,336,13.037801,
560,1.554560,338,16.590775,
561,1.557336,339,19.435387,
562,1.560112,341,21.508821,
563,1.562888,341,22.962139,
564,1.565664,342,23.926788,
565,1.568440,343,24.627372,
566,1.571216,344,25.289568,
567,1.573992,346,26.044584,
568,1.576768,347,26.964907,
569,1.579544,347,27.886022,
570,1.582320,348,28.631705,
571,1.585096,349,29.287870,
572,1.587872,350,29.961899,
573,1.590648,351,30.637152,
574,1.593424,351,31.208329,
575,1.596200,351,31.541551,
576,1.598976,353,31.784677,
577,1.601752,353,32.186100,
578,1.604528,353,32.597094,
579,1.607304,352,32.686865,
580,1.610080,351,32.273434,
581,1.612856,350,31.399315,
582,1.615632,350,30.334094,
583,1.618408,349,29.317636,
584,1.621184,349,28.400610,
585,1.623960,349,27.630009,
586,1.626736,348,26.984571,
587,1.629512,347,26.291246,
588,1.632288,348,25.603906,
589,1.635064,349,25.243303,
590,1.637840,349,25.268973,
591,1.640616,350,25.484708,
592,1.643392,351,25.852672,
593,1.646168,351,26.341426,
594,1.648944,350,26.680694,
595,1.651720,349,26.567810,
596,1.654496,348,25.923083,
597,1.657272,348,24.941163,
598,1.660048,349,24.041942,
599,1.662824,350,23.618498,
600,1.665600,350,23.694883,
601,1.668376,350,23.973870,
602,1.671152,350,24.185233,
603,1.673928,349,24.143051,
604,1.676704,348,23.688718,
605,1.679480,347,22.829341,
606,1.682256,345,21.643808,
607,1.685032,345,20.278967,
608,1.687808,346,19.147486,
609,1.690584,347,18.616783,
610,1.693360,348,18.704972,
611,1.696136,347,19.093524,
612,1.698912,347,19.372042,
613,1.701688,347,19.429779,
614,1.704464,345,19.181261,
615,1.707240,345,18.492777,
616,1.710016,345,17.601834,
617,1.712792,345,16.847496,
618,1.715568,346,16.432393,
619,1.718344,345,16.341755,
620,1.721120,346,16.370297,
621,1.723896,345,16.369421,
622,1.726672,344,16.120675,
623,1.729448,345,15.638481,
624,1.732224,345,15.264234,
625,1.735000,345,15.100490,
626,1.737776,346,15.106606,
627,1.740552,346,15.271251,
628,1.743328,347,15.530838,
629,1.746104,348,15.919801,
630,1.748880,348,16.426586,
631,1.751656,348,16.860471,
632,1.754432,347,17.008511,
633,1.757208,347,16.785302,
634,1.759984,347,16.340539,
635,1.762760,345,15.724904,
636,1.765536,343,14.722069,
637,1.768312,343,13.398022,
638,1.771088,345,12.342755,
639,1.773864,345,11.972845,
640,1.776640,346,12.133937,
641,1.779416,346,12.547740,
642,1.782192,345,12.914130,
643,1.784968,344,12.915255,
644,1.787744,343,12.441279,
645,1.790520,342,11.555429,
646,1.793296,342,10.471043,
647,1.796072,343,9.591797,
648,1.798848,344,9.284178,
649,1.801624,343,9.452549,
650,1.804400,343,9.666549,
651,1.807176,343,9.716003,
652,1.809952,343,9.620547,
653,1.812728,342,9.355840,
654,1.815504,342,8.922454,
655,1.818280,342,8.484741,
656,1.821056,344,8.335785,
657,1.823832,344,8.613712,
658,1.826608,345,9.129801,
659,1.829384,345,9.672237,
660,1.832160,344,10.034153,
661,1.834936,343,9.984392,
662,1.837712,343,9.550875,
663,1.840488,342,8.899700,
664,1.843264,341,8.057460,
665,1.846040,342,7.193845,
666,1.848816,341,6.581838,
667,1.851592,340,6.117846,
668,1.854368,338,5.475785,
669,1.857144,337,4.478853,
670,1.859920,339,3.454269,
671,1.862696,340,2.997011,
672,1.865472,341,3.258305,
673,1.868248,341,3.957557,
674,1.871024,342,4.793156,
675,1.873800,342,5.578188,
676,1.876576,342,6.125207,
677,1.879352,341,6.256823,
678,1.882128,340,5.908694,
679,1.884904,338,5.103533,
680,1.887680,337,3.941210,
681,1.890456,337,2.702795,
682,1.893232,338,1.779824,
683,1.896008,338,1.354667,
684,1.898784,337,1.220724,
685,1.901560,337,1.118767,
686,1.904336,339,1.200009,
687,1.907112,340,1.725515,
688,1.909888,340,2.502788,
689,1.912664,340,3.131193,
690,1.915440,340,3.483634,
691,1.918216,339,3.582507,
692,1.920992,338,3.365924,
693,1.923768,337,2.779421,
694,1.926544,336,1.861159,
695,1.929320,337,0.880148,
696,1.932096,337,0.241768,
697,1.934872,335,-0.104481,
698,1.937648,334,-0.557831,
699,1.940424,334,-1.190820,
700,1.943200,337,-1.573494,
701,1.945976,338,-1.272226,
702,1.948752,339,-0.383485,
703,1.951528,339,0.719220,
704,1.954304,338,1.640673,
705,1.957080,337,2.016092,
706,1.959856,337,1.790150,
707,1.962632,336,1.151828,
708,1.965408,337,0.410779,
709,1.968184,337,-0.039283,
710,1.970960,336,-0.158428,
711,1.973736,335,-0.286866,
712,1.976512,334,-0.701025,
713,1.979288,334,-1.397006,
714,1.982064,335,-2.042042,
715,1.984840,336,-2.227196,
716,1.987616,337,-1.805183,
717,1.990392,338,-0.911478,
718,1.993168,337,0.041361,
719,1.995944,335,0.434394,
720,1.998720,333,-0.099608,
721,2.001496,332,-1.358446,
722,2.004272,332,-2.764207,
723,2.007048,332,-3.826406,
724,2.009824,333,-4.350201,
725,2.012600,333,-4.375800,
726,2.015376,334,-4.055906,
727,2.018152,334,-3.515664,
728,2.020928,333,-3.007163,
729,2.023704,332,-2.868022,
730,2.026480,330,-3.304359,
731,2.029256,330,-4.236479,
732,2.032032,331,-5.155527,
733,2.034808,332,-5.530916,
734,2.037584,334,-5.152195,
735,2.040360,334,-4.175552,
736,2.043136,335,-3.024188,
737,2.045912,335,-2.014271,
738,2.048688,335,-1.309741,
739,2.051464,334,-1.024444,
740,2.054240,333,-1.207492,
741,2.057016,332,-1.799058,
742,2.059792,331,-2.657207,
743,2.062568,332,-3.505812,
744,2.065344,332,-4.017698,
745,2.068120,331,-4.239748,
746,2.070896,331,-4.405561,
747,2.073672,331,-4.525101,
748,2.076448,332,-4.479717,
749,2.079224,331,-4.313008,
750,2.082000,332,-4.170790,
751,2.084776,332,-4.000177,
752,2.087552,332,-3.759505,
753,2.090328,333,-3.445577,
754,2.093104,333,-3.024142,
755,2.095880,331,-2.781206,
756,2.098656,330,-3.083237,
757,2.101432,330,-3.793663,
758,2.104208,331,-4.402640,
759,2.106984,332,-4.524313,
760,2.109760,333,-4.107745,
761,2.112536,334,-3.308665,
762,2.115312,334,-2.370806,
763,2.118088,332,-1.723722,
764,2.120864,332,-1.666820,
765,2.123640,332,-1.991581,
766,2.126416,332,-2.377027,
767,2.129192,332,-2.692851,
768,2.131968,333,-2.805094,
769,2.134744,335,-2.457085,
770,2.137520,334,-1.690754,
771,2.140296,332,-1.143037,
772,2.143072,330,-1.395323,
773,2.145848,328,-2.498736,
774,2.148624,329,-3.965640,
775,2.151400,331,-4.945846,
776,2.154176,332,-4.957170,
777,2.156952,331,-4.344920,
778,2.159728,331,-3.725361,
779,2.162504,331,-3.327380,
780,2.165280,332,-3.040073,
781,2.168056,332,-2.747648,
782,2.170832,333,-2.416874,
783,2.173608,334,-1.939793,
784,2.176384,335,-1.209338,
785,2.179160,336,-0.261151,
786,2.181936,339,0.946501,
787,2.184712,342,2.615283,
788,2.187488,343,4.657385,
789,2.190264,342,6.482882,
790,2.193040,343,7.672777,
791,2.195816,343,8.351008,
792,2.198592,345,8.824814,
793,2.201368,345,9.290307,
794,2.204144,344,9.587912,
795,2.206920,343,9.463363,
796,2.209696,343,9.017820,
797,2.212472,344,8.615578,
798,2.215248,345,8.540097,
799,2.218024,344,8.658001,
800,2.220800,343,8.569658,
801,2.223576,341,8.039849,
802,2.226352,338,6.942778,
803,2.229128,335,5.152477,
804,2.231904,333,2.764194,
805,2.234680,331,0.108154,
806,2.237456,329,-2.496903,
807,2.240232,326,-4.930487,
808,2.243008,323,-7.280441,
809,2.245784,323,-9.457626,
810,2.248560,325,-10.942741,
811,2.251336,327,-11.289282,
812,2.254112,329,-10.515853,
813,2.256888,329,-9.036196,
814,2.259664,329,-7.452504,
815,2.262440,328,-6.276114,
816,2.265216,327,-5.840372,
817,2.267992,327,-6.139259,
818,2.270768,327,-6.779113,
819,2.273544,326,-7.401529,
820,2.276320,327,-7.772617,
821,2.279096,326,-7.799630,
822,2.281872,327,-7.650539,
823,2.284648,327,-7.463029,
824,2.287424,327,-7.306434,
825,2.290200,326,-7.262582,
826,2.292976,326,-7.308789,
827,2.295752,324,-7.481706,
828,2.298528,322,-8.075990,
829,2.301304,318,-9.465486,
830,2.304080,318,-11.535910,
831,2.306856,316,-13.635654,
832,2.309632,312,-15.584050,
833,2.312408,305,-18.036699,
834,2.315184,296,-21.893066,
835,2.317960,281,-28.105029,
836,2.320736,270,-37.058940,
837,2.323512,265,-47.352329,
838,2.326288,271,-55.885147,
839,2.329064,291,-58.783081,
840,2.331840,321,-52.592517,
841,2.334616,349,-36.409665,
842,2.337392,374,-12.770892,
843,2.340168,392,13.899138,
844,2.342944,407,39.354677,
845,2.345720,423,61.213418,
846,2.348496,437,79.183548,
847,2.351272,443,93.358869,
848,2.354048,440,102.948764,
849,2.356824,429,106.676368,
850,2.359600,412,103.614595,
851,2.362376,387,93.259069,
852,2.365152,360,75.633193,
853,2.367928,335,52.193745,
854,2.370704,315,26.059701,
855,2.373480,299,0.821672,
856,2.376256,290,-20.669464,
857,2.379032,280,-37.186631,
858,2.381808,274,-49.243942,
859,2.384584,272,-57.627054,
860,2.387360,274,-62.447927,
861,2.390136,279,-63.553547,
862,2.392912,290,-60.745820,
863,2.395688,302,-54.022758,
864,2.398464,313,-44.231508,
865,2.401240,319,-33.207557,
866,2.404016,322,-23.064488,
867,2.406792,322,-15.311570,
868,2.409568,322,-10.469565,
869,2.412344,320,-8.349906,
870,2.415120,319,-8.416626,
871,2.417896,320,-9.648544,
872,2.420672,323,-10.623958,
873,2.423448,325,-10.349277,
874,2.426224,327,-8.804055,
875,2.429000,327,-6.708610,
876,2.431776,328,-4.873656,
877,2.434552,327,-3.727920,
878,2.437328,325,-3.457598,
879,2.440104,324,-3.976297,
880,2.442880,324,-4.807477,
881,2.445656,325,-5.440165,
882,2.448432,325,-5.701077,
883,2.451208,325,-5.744375,
884,2.453984,326,-5.605168,
885,2.456760,327,-5.088499,
886,2.459536,327,-4.224810,
887,2.462312,325,-3.534738,
888,2.465088,324,-3.568635,
889,2.467864,323,-4.321016,
890,2.470640,324,-5.259530,
891,2.473416,323,-5.886809,
892,2.476192,323,-6.170035,
893,2.478968,325,-6.100788,
894,2.481744,326,-5.551636,
895,2.484520,325,-4.807523,
896,2.487296,324,-4.368285,
897,2.490072,323,-4.399549,
898,2.492848,323,-4.723275,
899,2.495624,322,-5.173558,
900,2.498400,321,-5.806072,
901,2.501176,322,-6.510483,
902,2.503952,323,-6.839436,
903,2.506728,324,-6.514231,
904,2.509504,324,-5.705084,
905,2.512280,322,-4.996125,
906,2.515056,322,-4.871893,
907,2.517832,322,-5.190281,
908,2.520608,322,-5.567256,
909,2.523384,321,-5.864560,
910,2.526160,321,-6.107122,
911,2.528936,320,-6.346113,
912,2.531712,320,-6.651822,
913,2.534488,319,-7.053803,
914,2.537264,319,-7.506811,
915,2.540040,319,-7.849818,
916,2.542816,320,-7.877677,
917,2.545592,319,-7.637055,
918,2.548368,318,-7.504913,
919,2.551144,317,-7.757400,
920,2.553920,316,-8.353741,
921,2.556696,315,-9.137824,
922,2.559472,315,-9.902608,
923,2.562248,313,-10.593827,
924,2.565024,311,-11.468618,
925,2.567800,308,-12.794179,
926,2.570576,306,-14.579134,
927,2.573352,304,-16.581517,
928,2.576128,303,-18.487238,
929,2.578904,302,-20.068544,
930,2.581680,300,-21.346319,
931,2.584456,299,-22.479892,
932,2.587232,298,-23.465210,
933,2.590008,297,-24.259557,
934,2.592784,297,-24.846229,
935,2.595560,296,-25.229618,
936,2.598336,295,-25.555773,
937,2.601112,294,-25.950333,
938,2.603888,294,-26.333806,
939,2.606664,293,-26.601493,
940,2.609440,292,-26.851322,
941,2.612216,290,-27.298444,
942,2.614992,288,-28.108385,
943,2.617768,287,-29.202860,
944,2.620544,286,-30.290937,
945,2.623320,287,-31.039960,
946,2.626096,288,-31.140493,
947,2.628872,288,-30.610308,
948,2.631648,289,-29.712999,
949,2.634424,290,-28.558501,
950,2.637200,292,-27.114503,
951,2.639976,295,-25.261090,
952,2.642752,298,-22.888849,
953,2.645528,301,-20.054030,
954,2.648304,306,-16.746437,
955,2.651080,310,-12.858937,
956,2.653856,315,-8.472685,
957,2.656632,319,-3.821195,
958,2.659408,323,0.802091,
959,2.662184,325,5.047114,
960,2.664960,327,8.603372,
961,2.667736,329,11.426759,
962,2.670512,333,13.865998,
963,2.673288,336,16.357171,
964,2.676064,339,19.011833,
965,2.678840,342,21.753070,
966,2.681616,345,24.561298,
967,2.684392,347,27.343342,
968,2.687168,349,29.884640,
969,2.689944,348,31.816077,
970,2.692720,349,32.851852,
971,2.695496,349,33.180543,
972,2.698272,351,33.279652,
973,2.701048,352,33.566776,
974,2.703824,353,34.124232,
975,2.706600,354,34.798849,
976,2.709376,356,35.566496,
977,2.712152,356,36.394972,
978,2.714928,355,36.954417,
979,2.717704,354,36.903472,
980,2.720480,354,36.297273,
981,2.723256,353,35.383175,
982,2.726032,353,34.335115,
983,2.728808,354,33.430904,
984,2.731584,356,33.070702,
985,2.734360,357,33.405099,
986,2.737136,357,34.109532,
987,2.739912,357,34.695099,
988,2.742688,355,34.768767,
989,2.745464,352,33.954489,
990,2.748240,351,32.247376,
991,2.751016,351,30.244832,
992,2.753792,350,28.489353,
993,2.756568,350,27.104730,
994,2.759344,351,26.194924,
995,2.762120,351,25.827176,
996,2.764896,351,25.785581,
997,2.767672,351,25.799525,
998,2.770448,350,25.654391,
999,2.773224,347,24.999260,
1000,2.776000,346,23.641573,
1001,2.778776,345,21.903946,
1002,2.781552,346,20.339591,
1003,2.784328,346,19.323305,
1004,2.787104,345,18.743892,
1005,2.789880,345,18.288316,
1006,2.792656,345,17.902288,
1007,2.795432,345,17.618565,
1008,2.798208,345,17.391374,
1009,2.800984,344,17.087951,
1010,2.803760,343,16.534884,
1011,2.806536,341,15.619485,
1012,2.809312,340,14.357694,
1013,2.812088,340,13.013153,
1014,2.814864,342,12.070140,
1015,2.817640,342,11.796746,
1016,2.820416,343,12.023529,
1017,2.823192,343,12.497936,
1018,2.825968,342,12.917120,
1019,2.828744,341,12.929741,
1020,2.831520,340,12.405650,
1021,2.834296,339,11.433408,
1022,2.837072,339,10.280915,
1023,2.839848,339,9.309433,
1024,2.842624,339,8.711737,
1025,2.845400,339,8.438135,
1026,2.848176,339,8.332674,
1027,2.850952,340,8.331300,
1028,2.853728,340,8.457010,
1029,2.856504,340,8.632102,
1030,2.859280,339,8.688044,
1031,2.862056,339,8.521886,
1032,2.864832,338,8.131548,
1033,2.867608,338,7.552105,
1034,2.870384,339,7.010928,
1035,2.873160,339,6.768834,
1036,2.875936,339,6.787943,
1037,2.878712,338,6.827698,
1038,2.881488,337,6.613130,
1039,2.884264,337,6.085673,
1040,2.887040,337,5.460147,
1041,2.889816,337,4.942157,
1042,2.892592,337,4.613054,
1043,2.895368,336,4.392437,
1044,2.898144,336,4.130141,
1045,2.900920,337,3.904076,
1046,2.903696,338,3.934224,
1047,2.906472,338,4.225684,
1048,2.909248,339,4.659563,
1049,2.912024,340,5.258990,
1050,2.914800,339,5.893630,
1051,2.917576,338,6.151497,
1052,2.920352,337,5.811137,
1053,2.923128,336,4.981883,
1054,2.925904,336,3.966494,
1055,2.928680,334,2.965367,
1056,2.931456,334,1.977456,
1057,2.934232,334,1.137680,
1058,2.937008,334,0.582898,
1059,2.939784,334,0.272403,
1060,2.942560,334,0.139474,
1061,2.945336,335,0.208492,
1062,2.948112,336,0.580438,
1063,2.950888,336,1.169331,
1064,2.953664,337,1.771286,
1065,2.956440,336,2.229492,
1066,2.959216,336,2.398385,
1067,2.961992,335,2.257024,
1068,2.964768,333,1.734516,
1069,2.967544,332,0.746371,
1070,2.970320,331,-0.530446,
1071,2.973096,331,-1.778059,
1072,2.975872,332,-2.629075,
1073,2.978648,334,-2.736773,
1074,2.981424,335,-2.047144,
1075,2.984200,335,-0.960091,
1076,2.986976,334,-0.073120,
1077,2.989752,332,0.140873,
1078,2.992528,332,-0.358286,
1079,2.995304,332,-1.133335,
1080,2.998080,333,-1.713049,
1081,3.000856,334,-1.828498,
1082,3.003632,334,-1.507198,
1083,3.006408,333,-1.104892,
1084,3.009184,332,-1.002758,
1085,3.011960,331,-1.344762,
1086,3.014736,331,-2.001539,
1087,3.017512,330,-2.766424,
1088,3.020288,330,-3.509088,
1089,3.023064,332,-3.913128,
1090,3.025840,333,-3.635130,
1091,3.028616,333,-2.856209,
1092,3.031392,333,-2.063175,
1093,3.034168,333,-1.532515,
1094,3.036944,333,-1.278659,
1095,3.039720,333,-1.207117,
1096,3.042496,334,-1.142696,
1097,3.045272,335,-0.871532,
1098,3.048048,335,-0.392615,
1099,3.050824,335,0.073002,
1100,3.053600,334,0.305914,
1101,3.056376,331,-0.000620,
1102,3.059152,330,-1.025129,
1103,3.061928,330,-2.391803,
1104,3.064704,331,-3.486313,
1105,3.067480,333,-3.855465,
1106,3.070256,334,-3.372873,
1107,3.073032,335,-2.298299,
1108,3.075808,334,-1.135487,
1109,3.078584,334,-0.361589,
1110,3.081360,334,-0.080928,
1111,3.084136,333,-0.207780,
1112,3.086912,333,-0.643729,
1113,3.089688,332,-1.206845,
1114,3.092464,332,-1.756302,
1115,3.095240,332,-2.177461,
1116,3.098016,331,-2.509062,
1117,3.100792,330,-2.973836,
1118,3.103568,329,-3.670685,
1119,3.106344,330,-4.366028,
1120,3.109120,332,-4.566627,
1121,3.111896,334,-3.957500,
1122,3.114672,335,-2.711484,
1123,3.117448,335,-1.331529,
1124,3.120224,335,-0.251774,
1125,3.123000,335,0.406678,
1126,3.125776,335,0.716425,
1127,3.128552,333,0.616528,
1128,3.131328,333,0.033216,
1129,3.134104,333,-0.736640,
1130,3.136880,333,-1.331296,
1131,3.139656,334,-1.568734,
1132,3.142432,335,-1.344405,
1133,3.145208,336,-0.716115,
1134,3.147984,334,-0.085811,
1135,3.150760,331,-0.134639,
1136,3.153536,329,-1.180200,
1137,3.156312,328,-2.861484,
1138,3.159088,329,-4.485700,
1139,3.161864,330,-5.460241,
1140,3.164640,331,-5.607708,
1141,3.167416,333,-4.991484,
1142,3.170192,333,-3.825227,
1143,3.172968,333,-2.597970,
1144,3.175744,332,-1.798434,
1145,3.178520,331,-1.687507,
1146,3.181296,330,-2.235208,
1147,3.184072,330,-3.104458,
1148,3.186848,331,-3.784742,
1149,3.189624,331,-3.977273,
1150,3.192400,330,-3.907957,
1151,3.195176,329,-4.007277,
1152,3.197952,329,-4.385414,
1153,3.200728,330,-4.742819,
1154,3.203504,330,-4.800836,
1155,3.206280,331,-4.546650,
1156,3.209056,331,-4.083316,
1157,3.211832,331,-3.605423,
1158,3.214608,331,-3.271804,
1159,3.217384,331,-3.091166,
1160,3.220160,331,-3.013457,
1161,3.222936,331,-2.988396,
1162,3.225712,332,-2.908964,
1163,3.228488,333,-2.603569,
1164,3.231264,334,-2.003178,
1165,3.234040,335,-1.168517,
1166,3.236816,333,-0.420640,
1167,3.239592,332,-0.236679,
1168,3.242368,330,-0.779242,
1169,3.245144,330,-1.821348,
1170,3.247920,330,-2.903886,
1171,3.250696,330,-3.682069,
1172,3.253472,330,-4.093039,
1173,3.256248,330,-4.196266,
1174,3.259024,330,-4.105767,
1175,3.261800,330,-3.952127,
1176,3.264576,330,-3.836680,
1177,3.267352,331,-3.715114,
1178,3.270128,331,-3.473317,
1179,3.272904,331,-3.155212,
1180,3.275680,330,-2.946321,
1181,3.278456,328,-3.132022,
1182,3.281232,327,-3.877372,
1183,3.284008,327,-4.925535,
1184,3.286784,328,-5.765302,
1185,3.289560,328,-6.091302,
1186,3.292336,329,-5.926208,
1187,3.295112,329,-5.426285,
1188,3.297888,331,-4.696349,
1189,3.300664,332,-3.722671,
1190,3.303440,334,-2.515609,
1191,3.306216,336,-1.064310,
1192,3.308992,336,0.502758,
1193,3.311768,338,1.954762,
1194,3.314544,340,3.377789,
1195,3.317320,341,4.850364,
1196,3.320096,342,6.206956,
1197,3.322872,341,7.205041,
1198,3.325648,340,7.591275,
1199,3.328424,340,7.400627,
1200,3.331200,339,6.877792,
1201,3.333976,338,6.098230,
1202,3.336752,336,5.007688,
1203,3.339528,333,3.490979,
1204,3.342304,331,1.536822,
1205,3.345080,330,-0.550374,
1206,3.347856,328,-2.494539,
1207,3.350632,326,-4.354001,
1208,3.353408,324,-6.244828,
1209,3.356184,322,-8.145678,
1210,3.358960,320,-9.996284,
1211,3.361736,319,-11.710583,
1212,3.364512,319,-13.107283,
1213,3.367288,320,-13.946157,
1214,3.370064,320,-14.150017,
1215,3.372840,320,-13.914454,
1216,3.375616,320,-13.478173,
1217,3.378392,320,-12.998330,
1218,3.381168,320,-12.606011,
1219,3.383944,320,-12.378390,
1220,3.386720,320,-12.291952,
1221,3.389496,320,-12.239581,
1222,3.392272,320,-12.118062,
1223,3.395048,321,-11.833662,
1224,3.397824,321,-11.378016,
1225,3.400600,321,-10.930604,
1226,3.403376,320,-10.707497,
1227,3.406152,321,-10.666704,
1228,3.408928,321,-10.537863,
1229,3.411704,320,-10.337143,
1230,3.414480,318,-10.449587,
1231,3.417256,317,-11.105039,
1232,3.420032,315,-12.206977,
1233,3.422808,312,-13.695182,
1234,3.425584,311,-15.468192,
1235,3.428360,309,-17.242122,
1236,3.431136,304,-19.171669,
1237,3.433912,296,-22.051649,
1238,3.436688,286,-26.696280,
1239,3.439464,273,-33.574189,
1240,3.442240,259,-42.823822,
1241,3.445016,253,-53.519384,
1242,3.447792,259,-62.785178,
1243,3.450568,279,-66.440365,
1244,3.453344,309,-60.781741,
1245,3.456120,337,-44.801448,
1246,3.458896,361,-21.141013,
1247,3.461672,382,5.779326,
1248,3.464448,399,32.026236,
1249,3.467224,416,55.193719,
1250,3.470000,430,74.549275,107.00
1251,3.472776,438,90.009598,107.00
1252,3.475552,438,101.093248,107.00
1253,3.478328,429,106.737231,107.00
1254,3.481104,412,105.627052,107.00
1255,3.483880,389,96.840684,107.00
1256,3.486656,361,80.349199,107.00
1257,3.489432,335,57.493438,107.00
1258,3.492208,313,31.228037,107.00
1259,3.494984,298,5.321696,107.00
1260,3.497760,287,-17.069495,107.00
1261,3.500536,279,-34.473617,107.00
1262,3.503312,270,-47.245781,107.00
1263,3.506088,266,-56.456726,107.00
1264,3.508864,266,-62.485040,107.00
1265,3.511640,270,-65.063932,107.00
1266,3.514416,279,-63.892385,107.00
1267,3.517192,291,-58.832455,107.00
1268,3.519968,302,-50.364738,107.00
1269,3.522744,309,-39.953986,107.00
1270,3.525520,313,-29.603405,107.00
1271,3.528296,315,-20.944219,107.00
1272,3.531072,314,-14.938154,107.00
1273,3.533848,314,-11.834753,107.00
1274,3.536624,313,-11.074639,107.00
1275,3.539400,313,-11.656477,107.00
1276,3.542176,311,-12.704154,107.00
1277,3.544952,310,-13.785509,107.00
1278,3.547728,310,-14.680657,107.00
1279,3.550504,310,-15.269853,107.00
1280,3.553280,310,-15.629039,107.00
1281,3.556056,312,-15.664286,107.00
1282,3.558832,313,-15.072017,107.00
1283,3.561608,314,-13.840361,107.00
1284,3.564384,315,-12.279968,107.00
1285,3.567160,315,-10.820170,107.00
1286,3.569936,316,-9.769309,107.00
1287,3.572712,315,-9.170524,107.00
1288,3.575488,315,-8.938179,107.00
1289,3.578264,316,-8.756846,107.00
1290,3.581040,316,-8.365452,107.00
1291,3.583816,316,-7.925369,107.00
1292,3.586592,314,-7.824847,107.00
1293,3.589368,313,-8.299352,107.00
1294,3.592144,312,-9.145974,107.00
1295,3.594920,312,-9.948002,107.00
1296,3.597696,313,-10.369910,107.00
1297,3.600472,313,-10.351387,107.00
1298,3.603248,312,-10.217783,107.00
1299,3.606024,312,-10.229936,107.00
1300,3.608800,312,-10.260734,107.00
1301,3.611576,313,-10.059994,107.00
1302,3.614352,314,-9.510876,107.00
1303,3.617128,314,-8.776584,107.00
1304,3.619904,314,-8.166861,107.00
1305,3.622680,313,-7.853418,107.00
1306,3.625456,313,-7.795652,107.00
1307,3.628232,313,-7.795766,107.00
1308,3.631008,313,-7.749944,107.00
1309,3.633784,312,-7.798116,107.00
1310,3.636560,311,-8.134451,107.00
1311,3.639336,311,-8.671104,107.00
1312,3.642112,310,-9.153253,107.00
1313,3.644888,310,-9.489825,107.00
1314,3.647664,310,-9.676820,107.00
1315,3.650440,309,-9.832148,107.00
1316,3.653216,308,-10.172543,107.00
1317,3.655992,308,-10.654658,107.00
1318,3.658768,308,-10.993667,107.00
1319,3.661544,308,-11.048460,107.00
1320,3.664320,306,-11.070719,107.00
1321,3.667096,306,-11.374384,107.00
1322,3.669872,305,-11.907165,107.00
1323,3.672648,305,-12.448425,107.00
1324,3.675424,304,-12.863468,107.00
1325,3.678200,305,-13.060653,107.00
1326,3.680976,303,-13.117793,107.00
1327,3.683752,302,-13.382910,107.00
1328,3.686528,300,-14.069919,107.00
1329,3.689304,299,-15.081607,107.00
1330,3.692080,296,-16.320466,107.00
1331,3.694856,295,-17.757187,107.00
1332,3.697632,294,-19.194675,107.00
1333,3.700408,293,-20.431798,107.00
1334,3.703184,292,-21.445715,107.00
1335,3.705960,290,-22.328059,107.00
1336,3.708736,289,-23.189596,107.00
1337,3.711512,289,-23.925452,107.00
1338,3.714288,287,-24.503683,107.00
1339,3.717064,285,-25.230636,107.00
1340,3.719840,284,-26.233695,107.00
1341,3.722616,284,-27.190408,107.00
1342,3.725392,282,-27.887668,107.00
1343,3.728168,281,-28.493141,107.00
1344,3.730944,279,-29.205804,107.00
1345,3.733720,277,-30.162084,107.00
1346,3.736496,274,-31.477732,107.00
1347,3.739272,273,-33.046928,107.00
1348,3.742048,274,-34.339596,107.00
1349,3.744824,275,-34.792740,107.00
1350,3.747600,275,-34.410134,107.00
1351,3.750376,275,-33.610926,107.00
1352,3.753152,275,-32.729280,107.00
1353,3.755928,276,-31.815517,107.00
1354,3.758704,277,-30.760138,107.00
1355,3.761480,280,-29.378427,107.00
1356,3.764256,283,-27.425794,107.00
1357,3.767032,287,-24.751125,107.00
1358,3.769808,291,-21.336347,107.00
1359,3.772584,295,-17.311074,107.00
1360,3.775360,298,-13.018863,107.00
1361,3.778136,302,-8.806434,107.00
1362,3.780912,305,-4.827940,107.00
1363,3.783688,309,-1.080656,107.00
1364,3.786464,313,2.605688,107.00
1365,3.789241,316,6.329746,107.00
1366,3.792017,318,9.870018,107.00
1367,3.794793,320,12.931109,107.00
1368,3.797569,323,15.514613,107.00
1369,3.800345,328,18.061307,107.00
1370,3.803121,332,21.059033,107.00
1371,3.805897,336,24.562485,107.00
1372,3.808673,338,28.211085,107.00
1373,3.811449,341,31.579703,107.00
1374,3.814225,342,34.403151,107.00
1375,3.817001,345,36.631395,107.00
1376,3.819777,346,38.412357,107.00
1377,3.822553,345,39.645347,107.00
1378,3.825329,343,39.956441,107.00
1379,3.828105,343,39.359729,157.77
1380,3.830881,343,38.351597,157.77
1381,3.833657,344,37.428495,157.77
1382,3.836433,344,36.809854,157.77
1383,3.839209,345,36.524933,157.77
1384,3.841985,346,36.620522,157.77
1385,3.844761,348,37.167990,157.77
1386,3.847537,349,38.082844,157.77
1387,3.850313,351,39.152929,157.77
1388,3.853089,352,40.228190,157.77
1389,3.855865,351,41.054282,157.77
1390,3.858641,350,41.282482,157.77
1391,3.861417,349,40.831996,157.77
1392,3.864193,350,39.993915,157.77
1393,3.866969,350,39.162976,157.77
1394,3.869745,350,38.466682,157.77
1395,3.872521,350,37.892427,157.77
1396,3.875297,348,37.322674,157.77
1397,3.878073,347,36.503400,157.77
1398,3.880849,345,35.287155,157.77
1399,3.883625,345,33.742769,157.77
1400,3.886401,344,32.129163,157.77
1401,3.889177,345,30.776034,157.77
1402,3.891953,347,30.120969,157.77
1403,3.894729,347,30.296264,157.77
1404,3.897505,347,30.814196,157.77
1405,3.900281,347,31.161555,157.77
1406,3.903057,346,31.090698,157.77
1407,3.905833,344,30.436309,157.77
1408,3.908609,344,29.302174,157.77
1409,3.911385,343,28.061158,157.77
1410,3.914161,343,26.933095,157.77
1411,3.916937,343,25.992820,157.77
1412,3.919713,343,25.273806,157.77
1413,3.922489,343,24.758167,157.77
1414,3.925265,342,24.352782,157.77
1415,3.928041,340,23.774356,157.77
1416,3.930817,339,22.784322,157.77
1417,3.933593,339,21.525974,157.77
1418,3.936369,340,20.422676,157.77
1419,3.939145,341,19.845119,157.77
1420,3.941921,341,19.827096,157.77
1421,3.944697,342,20.168119,157.77
1422,3.947473,342,20.661832,157.77
1423,3.950249,342,21.043160,157.77
1424,3.953025,342,21.125232,157.77
1425,3.955801,342,20.944648,157.77
1426,3.958577,341,20.573411,157.77
1427,3.961353,341,20.063090,157.77
1428,3.964129,341,19.544913,157.77
1429,3.966905,342,19.173730,157.77
1430,3.969681,342,18.998056,157.77
1431,3.972457,342,18.911555,157.77
1432,3.975233,341,18.749302,157.77
1433,3.978009,341,18.439171,157.77
1434,3.980785,340,17.983834,157.77
1435,3.983561,341,17.447163,157.77
1436,3.986337,341,16.990600,157.77
1437,3.989113,342,16.744198,157.77
1438,3.991889,341,16.676315,157.77
1439,3.994665,341,16.613806,157.77
1440,3.997441,340,16.400841,157.77
1441,4.000217,341,16.040416,157.77
1442,4.002993,343,15.834983,157.77
1443,4.005769,343,16.008385,157.77
1444,4.008545,342,16.279654,157.77
1445,4.011321,342,16.349200,157.77
1446,4.014097,341,16.167809,157.77
1447,4.016873,340,15.643354,157.77
1448,4.019649,339,14.700288,157.77
1449,4.022425,339,13.523974,157.77
1450,4.025201,338,12.408698,157.77
1451,4.027977,339,11.596562,157.77
1452,4.030753,340,11.320748,157.77
1453,4.033529,341,11.589337,157.77
1454,4.036305,342,12.168469,157.77
1455,4.039081,342,12.796927,157.77
1456,4.041857,342,13.269524,157.77
1457,4.044633,343,13.615529,157.77
1458,4.047409,342,13.873153,157.77
1459,4.050185,342,13.860258,157.77
1460,4.052961,341,13.462930,157.77
1461,4.055737,341,12.772004,157.77
1462,4.058513,340,11.977294,157.77
1463,4.061289,340,11.235516,157.77
1464,4.064065,341,10.737466,157.77
1465,4.066841,342,10.652713,157.77
1466,4.069617,342,10.865800,157.77
1467,4.072393,343,11.176691,157.77
1468,4.075169,342,11.463827,157.77
1469,4.077945,342,11.577727,157.77
1470,4.080721,341,11.421137,157.77
1471,4.083497,341,10.978933,157.77
1472,4.086273,342,10.443531,157.77
1473,4.089049,343,10.163320,157.77
1474,4.091825,342,10.172888,157.77
1475,4.094601,341,10.140531,157.77
1476,4.097377,340,9.799837,157.77
1477,4.100153,339,9.086811,157.77
1478,4.102929,338,8.031142,157.77
1479,4.105705,338,6.828943,157.77
1480,4.108481,339,5.896279,157.77
1481,4.111257,340,5.602123,157.77
1482,4.114033,341,5.969029,157.77
1483,4.116809,343,6.824919,157.77
1484,4.119585,343,7.893296,157.77
1485,4.122361,343,8.760250,157.77
1486,4.125137,342,9.146338,157.77
1487,4.127913,342,9.068819,157.77
1488,4.130689,341,8.676732,157.77
1489,4.133465,341,8.073410,157.77
1490,4.136241,341,7.396733,157.77
1491,4.139017,341,6.806767,157.77
1492,4.141793,340,6.313852,157.77
1493,4.144569,339,5.789344,157.77
1494,4.147345,339,5.196290,157.77
1495,4.150121,340,4.721706,157.77
1496,4.152897,340,4.496974,157.77
1497,4.155673,341,4.494046,157.77
1498,4.158449,341,4.693810,157.77
1499,4.161225,342,5.083553,157.77
1500,4.164001,342,5.594773,157.77
1501,4.166777,341,5.946278,157.77
1502,4.169553,340,5.794221,157.77
1503,4.172329,340,5.172090,157.77
1504,4.175105,340,4.447320,157.77
1505,4.177881,339,3.836604,157.77
1506,4.180657,338,3.234007,157.77
1507,4.183433,339,2.639521,157.77
1508,4.186209,341,2.395954,157.77
1509,4.188985,341,2.665309,157.77
1510,4.191761,339,2.998474,157.77
1511,4.194537,338,2.880100,157.77
1512,4.197313,336,2.198196,157.77
1513,4.200089,337,1.190366,157.77
1514,4.202865,338,0.364340,157.77
1515,4.205641,339,0.068023,157.77
1516,4.208417,339,0.250225,157.77
1517,4.211193,339,0.674779,157.77
1518,4.213969,339,1.125380,157.77
1519,4.216745,338,1.369161,157.77
1520,4.219521,338,1.213064,157.77
1521,4.222297,338,0.758496,157.77
1522,4.225073,338,0.273304,157.77
1523,4.227849,337,-0.121104,157.77
1524,4.230625,337,-0.448298,157.77
1525,4.233401,339,-0.554564,157.77
1526,4.236177,340,-0.231509,157.77
1527,4.238953,341,0.423692,157.77
1528,4.241729,341,1.170073,157.77
1529,4.244505,339,1.672135,157.77
1530,4.247281,339,1.685155,157.77
1531,4.250057,338,1.287149,157.77
1532,4.252833,338,0.609980,157.77
1533,4.255609,338,-0.171279,157.77
1534,4.258385,340,-0.659501,157.77
1535,4.261161,341,-0.461064,157.77
1536,4.263937,340,0.243061,157.77
1537,4.266713,341,0.942974,157.77
1538,4.269489,340,1.355162,157.77
1539,4.272265,338,1.178376,157.77
1540,4.275041,337,0.293732,157.77
1541,4.277817,336,-0.952392,157.77
1542,4.280593,337,-2.039250,157.77
1543,4.283369,339,-2.475632,157.77
1544,4.286145,341,-2.051996,157.77
1545,4.288921,341,-1.068868,157.77
1546,4.291697,339,-0.223791,157.77
1547,4.294473,338,-0.034720,157.77
1548,4.297249,339,-0.313800,157.77
1549,4.300025,340,-0.537228,157.77
1550,4.302801,341,-0.473348,157.77
1551,4.305577,340,-0.291458,157.77
1552,4.308353,338,-0.381824,157.77
1553,4.311129,338,-0.850805,157.77
1554,4.313905,338,-1.382864,157.77
1555,4.316681,339,-1.717569,157.77
1556,4.319457,339,-1.849221,157.77
1557,4.322233,340,-1.830631,157.77
1558,4.325009,341,-1.535756,157.77
1559,4.327785,343,-0.747196,157.77
1560,4.330561,343,0.446242,157.77
1561,4.333337,342,1.461517,157.77
1562,4.336113,340,1.654838,157.77
1563,4.338889,338,0.822935,157.77
1564,4.341665,338,-0.615341,157.77
1565,4.344441,338,-1.925615,157.77
1566,4.347217,339,-2.654487,157.77
1567,4.349993,340,-2.736952,157.77
1568,4.352769,339,-2.483412,157.77
1569,4.355545,338,-2.397497,157.77
1570,4.358321,337,-2.688114,157.77
1571,4.361097,337,-3.192202,157.77
1572,4.363873,339,-3.512880,157.77
1573,4.366649,342,-3.181374,157.77
1574,4.369425,343,-2.116370,157.77
1575,4.372201,343,-0.777268,157.77
1576,4.374977,340,0.134734,157.77
1577,4.377753,339,0.148383,157.77
1578,4.380529,338,-0.618369,157.77
1579,4.383305,339,-1.686755,157.77
1580,4.386081,339,-2.605225,157.77
1581,4.388857,339,-3.178136,157.77
1582,4.391633,339,-3.380566,157.77
1583,4.394409,340,-3.174261,157.77
1584,4.397185,341,-2.589237,157.77
1585,4.399961,343,-1.739178,157.77
1586,4.402737,343,-0.818876,157.77
1587,4.405513,344,-0.011355,157.77
1588,4.408289,345,0.781301,157.77
1589,4.411065,345,1.655665,157.77
1590,4.413841,346,2.468434,157.77
1591,4.416617,347,3.132761,157.77
1592,4.419393,348,3.680175,157.77
1593,4.422169,349,4.224353,157.77
1594,4.424945,350,4.931066,157.77
1595,4.427721,351,5.865925,157.77
1596,4.430497,351,6.836762,157.77
1597,4.433273,350,7.406961,157.77
1598,4.436049,348,7.175107,157.77
1599,4.438825,348,6.227294,157.77
1600,4.441601,348,5.159583,157.77
1601,4.444377,349,4.506856,157.77
1602,4.447153,350,4.438833,157.77
1603,4.449929,350,4.748552,157.77
1604,4.452705,348,4.903708,157.77
1605,4.455481,346,4.429272,157.77
1606,4.458257,343,3.197575,157.77
1607,4.461033,341,1.338120,157.77
1608,4.463809,336,-1.123426,157.77
1609,4.466585,332,-4.367680,157.77
1610,4.469361,330,-8.129960,157.77
1611,4.472137,330,-11.526246,157.77
1612,4.474913,331,-13.722190,157.77
1613,4.477689,332,-14.457225,157.77
1614,4.480465,332,-14.133096,157.77
1615,4.483241,333,-13.354448,157.77
1616,4.486017,333,-12.497290,157.77
1617,4.488793,334,-11.700115,157.77
1618,4.491569,334,-10.969055,157.77
1619,4.494345,333,-10.444300,157.77
1620,4.497121,332,-10.374905,157.77
1621,4.499897,331,-10.814133,157.77
1622,4.502673,330,-11.623506,157.77
1623,4.505449,330,-12.533521,157.77
1624,4.508225,330,-13.229089,157.77
1625,4.511001,331,-13.496877,157.77
1626,4.513777,330,-13.405534,157.77
1627,4.516553,331,-13.186543,157.77
1628,4.519329,331,-12.889883,157.77
1629,4.522105,330,-12.627058,157.77
1630,4.524881,331,-12.495235,157.77
1631,4.527657,331,-12.334196,157.77
1632,4.530433,328,-12.341371,157.77
1633,4.533209,325,-13.086498,157.77
1634,4.535985,322,-14.768405,157.77
1635,4.538761,318,-17.230281,157.77
1636,4.541537,311,-20.552851,157.77
1637,4.544313,302,-25.185243,157.77
1638,4.547089,290,-31.632608,157.77
1639,4.549865,278,-40.096739,157.77
1640,4.552641,267,-50.143619,157.77
1641,4.555417,263,-60.399149,157.77
1642,4.558193,267,-68.491075,157.77
1643,4.560969,281,-71.636190,157.77
1644,4.563745,307,-67.212530,157.77
1645,4.566521,334,-53.873198,157.77
1646,4.569297,359,-32.984414,157.77
1647,4.572073,380,-8.011927,157.77
1648,4.574849,400,17.506690,157.77
1649,4.577625,419,41.350961,157.77
1650,4.580401,433,62.387879,157.77
1651,4.583177,443,79.782130,157.77
1652,4.585953,446,92.815739,157.77
1653,4.588729,441,100.643204,107.80
1654,4.591505,427,102.131121,107.80
1655,4.594281,406,96.230357,107.80
1656,4.597057,382,82.764913,107.80
1657,4.599833,358,63.018628,107.80
1658,4.602609,337,39.549142,107.80
1659,4.605385,320,15.447278,107.80
1660,4.608161,308,-6.513701,107.80
1661,4.610937,299,-24.556399,107.80
1662,4.613713,290,-38.373970,107.80
1663,4.616489,282,-48.852330,107.80
1664,4.619265,278,-56.847643,107.80
1665,4.622041,281,-62.152545,107.80
1666,4.624817,290,-63.663110,107.80
1667,4.627593,299,-60.736149,107.80
1668,4.630369,309,-54.024894,107.80
1669,4.633145,317,-44.945153,107.80
1670,4.635921,321,-35.275478,107.80
1671,4.638697,323,-26.811131,107.80
1672,4.641473,325,-20.558341,107.80
1673,4.644249,326,-16.559219,107.80
1674,4.647025,325,-14.502606,107.80
1675,4.649801,325,-13.927885,107.80
1676,4.652577,324,-14.165244,107.80
1677,4.655353,322,-14.800738,107.80
1678,4.658129,322,-15.667984,107.80
1679,4.660905,323,-16.414527,107.80
1680,4.663681,324,-16.694632,107.80
1681,4.666457,326,-16.331376,107.80
1682,4.669233,326,-15.358562,107.80
1683,4.672009,327,-14.070266,107.80
1684,4.674785,326,-12.867493,107.80
1685,4.677561,324,-12.289606,107.80
1686,4.680337,321,-12.801045,107.80
1687,4.683113,321,-14.203529,107.80
1688,4.685889,321,-15.665286,107.80
1689,4.688665,321,-16.565255,107.80
1690,4.691441,322,-16.785508,107.80
1691,4.694217,324,-16.324496,107.80
1692,4.696993,325,-15.287289,107.80
1693,4.699769,327,-13.880117,107.80
1694,4.702545,327,-12.316202,107.80
1695,4.705321,324,-11.151371,107.80
1696,4.708097,322,-11.028512,107.80
1697,4.710873,321,-11.922161,107.80
1698,4.713649,322,-13.174461,107.80
1699,4.716425,324,-13.963086,107.80
1700,4.719201,325,-13.829416,107.80
1701,4.721977,325,-12.967971,107.80
1702,4.724753,324,-11.964678,107.80
1703,4.727529,322,-11.446368,107.80
1704,4.730305,321,-11.734939,107.80
1705,4.733081,321,-12.583125,107.80
1706,4.735857,322,-13.377089,107.80
1707,4.738633,322,-13.672204,107.80
1708,4.741409,322,-13.484407,107.80
1709,4.744185,322,-13.063885,107.80
1710,4.746961,320,-12.798175,107.80
1711,4.749737,320,-12.989944,107.80
1712,4.752513,321,-13.366203,107.80
1713,4.755289,321,-13.483509,107.80
1714,4.758065,320,-13.368213,107.80
1715,4.760841,318,-13.407514,107.80
1716,4.763617,316,-13.964389,107.80
1717,4.766393,315,-15.054905,107.80
1718,4.769169,316,-16.221206,107.80
1719,4.771945,316,-16.931829,107.80
1720,4.774721,315,-17.160813,107.80
1721,4.777497,314,-17.246167,107.80
1722,4.780273,313,-17.443758,107.80
1723,4.783049,312,-17.860921,107.80
1724,4.785825,311,-18.510480,107.80
1725,4.788601,311,-19.240581,107.80
1726,4.791377,311,-19.766215,107.80
1727,4.794153,310,-20.001160,107.80
1728,4.796929,308,-20.232836,107.80
1729,4.799705,306,-20.834102,107.80
1730,4.802481,304,-21.941566,107.80
1731,4.805257,302,-23.454029,107.80
1732,4.808033,300,-25.175575,107.80
1733,4.810809,299,-26.845721,107.80
1734,4.813585,298,-28.208131,107.80
1735,4.816361,297,-29.202123,107.80
1736,4.819137,296,-29.946823,107.80
1737,4.821913,294,-30.645992,107.80
1738,4.824689,293,-31.441279,107.80
1739,4.827465,291,-32.324559,107.80
1740,4.830241,290,-33.259504,107.80
1741,4.833017,289,-34.159475,107.80
1742,4.835793,286,-35.102964,107.80
1743,4.838569,283,-36.408757,107.80
1744,4.841345,281,-38.122393,107.80
1745,4.844121,280,-39.871648,107.80
1746,4.846897,279,-41.281397,107.80
1747,4.849673,278,-42.265872,107.80
1748,4.852449,277,-42.931665,107.80
1749,4.855225,277,-43.314741,107.80
1750,4.858001,277,-43.330744,107.80
1751,4.860777,277,-42.980713,107.80
1752,4.863553,277,-42.403002,107.80
1753,4.866329,277,-41.747605,107.80
1754,4.869105,280,-40.869177,107.80
1755,4.871881,283,-39.307170,107.80
1756,4.874657,286,-36.860743,107.80
1757,4.877433,288,-33.808005,107.80
1758,4.880209,293,-30.376105,107.80
1759,4.882985,297,-26.488234,107.80
1760,4.885761,301,-22.219413,107.80
1761,4.888537,304,-17.890589,107.80
1762,4.891313,308,-13.710804,107.80
1763,4.894089,311,-9.706594,107.80
1764,4.896865,313,-6.008713,107.80
1765,4.899641,317,-2.684734,107.80
1766,4.902417,321,0.557195,107.80
1767,4.905193,326,4.069465,107.80
1768,4.907969,330,7.983418,107.80
1769,4.910745,334,12.158253,107.80
1770,4.913521,338,16.377366,107.80
1771,4.916297,341,20.433160,107.80
1772,4.919073,343,24.018898,107.80
1773,4.921849,343,26.753804,107.80
1774,4.924625,345,28.538656,107.80
1775,4.927401,346,29.729644,107.80
1776,4.930177,347,30.641638,107.80
1777,4.932953,349,31.457661,107.80
1778,4.935729,349,32.257874,107.80
1779,4.938505,350,32.924234,107.80
1780,4.941281,351,33.474593,107.80
1781,4.944057,353,34.117262,107.80
1782,4.946833,354,34.963158,107.80
1783,4.949609,354,35.809810,157.77
1784,4.952385,353,36.263738,157.77
1785,4.955161,353,36.161199,157.77
1786,4.957937,352,35.629527,157.77
1787,4.960713,353,34.922765,157.77
1788,4.963489,354,34.404594,157.77
1789,4.966265,354,34.217446,157.77
1790,4.969041,354,34.169675,157.77
1791,4.971817,355,34.176642,157.77
1792,4.974593,356,34.355472,157.77
1793,4.977369,356,34.671862,157.77
1794,4.980145,355,34.805554,157.77
1795,4.982921,354,34.456893,157.77
1796,4.985697,354,33.688119,157.77
1797,4.988473,352,32.675440,157.77
1798,4.991249,352,31.485054,157.77
1799,4.994025,351,30.261737,157.77
1800,4.996801,351,29.134733,157.77
1801,4.999577,351,28.205109,157.77
1802,5.002353,351,27.548435,157.77
1803,5.005129,351,27.127227,157.77
1804,5.007905,352,26.932353,157.77
1805,5.010681,350,26.792730,157.77
1806,5.013457,347,26.145828,157.77
1807,5.016233,346,24.717535,157.77
1808,5.019009,348,23.133352,157.77
1809,5.021785,350,22.292376,157.77
1810,5.024561,352,22.515540,157.77
1811,5.027337,352,23.440284,157.77
1812,5.030113,351,24.352788,157.77
1813,5.032889,350,24.700412,157.77
1814,5.035665,350,24.433768,157.77
1815,5.038441,350,23.830129,157.77
1816,5.041217,350,23.142162,157.77
1817,5.043993,349,22.436529,157.77
1818,5.046769,349,21.730027,157.77
1819,5.049545,348,21.071940,157.77
1820,5.052321,347,20.368434,157.77
1821,5.055097,347,19.541583,157.77
1822,5.057873,346,18.641615,157.77
1823,5.060649,345,17.653351,157.77
1824,5.063425,345,16.661477,157.77
1825,5.066201,345,15.896551,157.77
1826,5.068977,345,15.432441,157.77
1827,5.071753,344,15.070551,157.77
1828,5.074529,344,14.597084,157.77
1829,5.077305,344,14.067720,157.77
1830,5.080081,345,13.724184,157.77
1831,5.082857,346,13.778390,157.77
1832,5.085633,346,14.164371,157.77
1833,5.088409,344,14.403561,157.77
1834,5.091185,343,14.038325,157.77
1835,5.093961,342,13.107011,157.77
1836,5.096737,343,12.059279,157.77
1837,5.099513,344,11.413660,157.77
1838,5.102289,345,11.377392,157.77
1839,5.105065,346,11.826836,157.77
1840,5.107841,347,12.572932,157.77
1841,5.110617,346,13.312950,157.77
1842,5.113393,345,13.630600,157.77
1843,5.116169,346,13.489433,157.77
1844,5.118945,347,13.300689,157.77
1845,5.121721,346,13.211623,157.77
1846,5.124497,346,13.031095,157.77
1847,5.127273,346,12.760509,157.77
1848,5.130049,345,12.449365,157.77
1849,5.132825,343,11.874650,157.77
1850,5.135601,343,10.922712,157.77
1851,5.138377,343,9.885562,157.77
1852,5.141153,343,9.069163,157.77
1853,5.143929,343,8.556806,157.77
1854,5.146705,344,8.392452,157.77
1855,5.149481,343,8.476845,157.77
1856,5.152257,341,8.350988,157.77
1857,5.155033,341,7.732364,157.77
1858,5.157809,342,6.984963,157.77
1859,5.160585,343,6.612006,157.77
1860,5.163361,342,6.623576,157.77
1861,5.166137,341,6.606199,157.77
1862,5.168913,340,6.260742,157.77
1863,5.171689,340,5.637705,157.77
1864,5.174465,341,5.050373,157.77
1865,5.177241,342,4.829332,157.77
1866,5.180017,344,5.159326,157.77
1867,5.182793,345,6.046695,157.77
1868,5.185569,344,7.099401,157.77
1869,5.188345,343,7.715146,157.77
1870,5.191121,343,7.695550,157.77
1871,5.193897,343,7.291387,157.77
1872,5.196673,344,6.869103,157.77
1873,5.199449,343,6.600786,157.77
1874,5.202225,342,6.309692,157.77
1875,5.205001,341,5.799282,157.77
1876,5.207777,341,5.118739,157.77
1877,5.210553,340,4.372881,157.77
1878,5.213329,341,3.681198,157.77
1879,5.216105,341,3.255855,157.77
1880,5.218881,341,3.140735,157.77
1881,5.221657,340,3.124477,157.77
1882,5.224433,339,2.922910,157.77
1883,5.227209,338,2.366172,157.77
1884,5.229985,339,1.629328,157.77
1885,5.232761,339,1.078753,157.77
1886,5.235537,338,0.757194,157.77
1887,5.238313,335,0.262164,157.77
1888,5.241089,334,-0.727412,157.77
1889,5.243865,333,-2.058278,157.77
1890,5.246641,333,-3.383438,157.77
1891,5.249417,336,-4.196192,157.77
1892,5.252193,339,-3.881515,157.77
1893,5.254969,340,-2.430818,157.77
1894,5.257745,340,-0.561537,157.77
1895,5.260521,339,0.912050,157.77
1896,5.263297,339,1.592534,157.77
1897,5.266073,339,1.606793,157.77
1898,5.268849,340,1.366953,157.77
1899,5.271625,339,1.157053,157.77
1900,5.274401,339,0.975268,157.77
1901,5.277177,337,0.669846,157.77
1902,5.279953,337,0.103782,157.77
1903,5.282729,336,-0.669531,157.77
1904,5.285505,336,-1.502360,157.77
1905,5.288281,336,-2.200935,157.77
1906,5.291057,337,-2.519894,157.77
1907,5.293833,338,-2.311994,157.77
1908,5.296609,339,-1.646895,157.77
1909,5.299385,338,-0.902672,157.77
1910,5.302161,338,-0.492779,157.77
1911,5.304937,337,-0.510575,157.77
1912,5.307713,337,-0.816818,157.77
1913,5.310489,337,-1.187554,157.77
1914,5.313265,336,-1.553089,157.77
1915,5.316041,332,-2.308136,157.77
1916,5.318817,330,-3.852326,157.77
1917,5.321593,330,-5.810939,157.77
1918,5.324369,332,-7.273537,157.77
1919,5.327145,333,-7.688969,157.77
1920,5.329921,335,-7.126114,157.77
1921,5.332697,336,-5.908934,157.77
1922,5.335473,335,-4.565662,157.77
1923,5.338249,335,-3.624490,157.77
1924,5.341025,334,-3.253542,157.77
1925,5.343801,333,-3.463469,157.77
1926,5.346577,333,-4.107653,157.77
1927,5.349353,333,-4.823323,157.77
1928,5.352129,334,-5.249259,157.77
1929,5.354905,334,-5.227361,157.77
1930,5.357681,335,-4.844497,157.77
1931,5.360457,334,-4.362233,157.77
1932,5.363233,333,-4.174529,157.77
1933,5.366009,333,-4.408749,157.77
1934,5.368785,333,-4.795262,157.77
1935,5.371561,333,-5.088156,157.77
1936,5.374337,332,-5.306800,157.77
1937,5.377113,331,-5.653836,157.77
1938,5.379889,332,-6.097313,157.77
1939,5.382665,331,-6.437965,157.77
1940,5.385441,331,-6.698544,157.77
1941,5.388217,330,-6.972360,157.77
1942,5.390993,330,-7.283836,157.77
1943,5.393769,330,-7.565220,157.77
1944,5.396545,331,-7.664697,157.77
1945,5.399321,331,-7.511605,157.77
1946,5.402097,332,-7.143467,157.77
1947,5.404873,331,-6.696290,157.77
1948,5.407649,331,-6.393046,157.77
1949,5.410425,330,-6.365422,157.77
1950,5.413201,330,-6.603464,157.77
1951,5.415977,330,-6.956166,157.77
1952,5.418753,331,-7.163190,157.77
1953,5.421529,332,-6.991060,157.77
1954,5.424305,332,-6.454932,157.77
1955,5.427081,332,-5.835380,157.77
1956,5.429857,333,-5.284426,157.77
1957,5.432633,332,-4.859826,157.77
1958,5.435409,331,-4.780315,157.77
1959,5.438185,330,-5.153642,157.77
1960,5.440961,330,-5.779077,157.77
1961,5.443737,329,-6.427891,157.77
1962,5.446513,328,-7.104125,157.77
1963,5.449289,329,-7.731847,157.77
1964,5.452065,330,-7.978131,157.77
1965,5.454841,330,-7.744338,157.77
1966,5.457617,331,-7.207343,157.77
1967,5.460393,331,-6.527559,157.77
1968,5.463169,331,-5.905355,157.77
1969,5.465945,330,-5.573285,157.77
1970,5.468721,329,-5.686782,157.77
1971,5.471497,328,-6.228332,157.77
1972,5.474273,328,-6.964013,157.77
1973,5.477049,327,-7.666195,157.77
1974,5.479825,327,-8.268769,157.77
1975,5.482601,326,-8.782018,157.77
1976,5.485377,327,-9.152746,157.77
1977,5.488153,329,-9.084873,157.77
1978,5.490929,330,-8.372815,157.77
1979,5.493705,330,-7.304027,157.77
1980,5.496481,330,-6.330888,157.77
1981,5.499257,330,-5.668079,157.77
1982,5.502033,331,-5.228950,157.77
1983,5.504809,330,-4.927718,157.77
1984,5.507585,331,-4.774336,157.77
1985,5.510361,330,-4.715930,157.77
1986,5.513137,329,-4.841756,157.77
1987,5.515913,328,-5.272714,157.77
1988,5.518689,328,-5.887049,157.77
1989,5.521465,328,-6.446020,157.77
1990,5.524241,329,-6.733856,157.77
1991,5.527017,329,-6.665509,157.77
1992,5.529793,330,-6.294089,157.77
1993,5.532569,331,-5.640825,157.77
1994,5.535345,332,-4.738659,157.77
1995,5.538121,333,-3.710622,157.77
1996,5.540897,335,-2.585480,157.77
1997,5.543673,335,-1.399398,157.77
1998,5.546449,337,-0.240276,157.77
1999,5.549225,338,0.958278,157.77
2000,5.552001,342,2.423820,157.77
2001,5.554777,344,4.352275,157.77
2002,5.557553,344,6.415280,157.77
2003,5.560329,342,7.845628,157.77
2004,5.563105,340,8.128932,157.77
2005,5.565881,340,7.439652,157.77
2006,5.568657,341,6.489974,157.77
2007,5.571433,341,5.805294,157.77
2008,5.574209,341,5.424699,157.77
2009,5.576985,339,5.105381,157.77
2010,5.579761,337,4.498627,157.77
2011,5.582537,334,3.333914,157.77
2012,5.585313,331,1.461152,157.77
2013,5.588089,329,-1.022055,157.77
2014,5.590865,329,-3.574208,157.77
2015,5.593641,327,-5.664058,157.77
2016,5.596417,326,-7.230043,157.77
2017,5.599193,325,-8.384693,157.77
2018,5.601969,323,-9.349601,157.77
2019,5.604745,321,-10.496116,157.77
2020,5.607521,321,-11.846888,157.77
2021,5.610297,321,-12.985215,157.77
2022,5.613073,322,-13.521466,157.77
2023,5.615849,321,-13.473286,157.77
2024,5.618625,320,-13.294616,157.77
2025,5.621401,320,-13.325093,157.77
2026,5.624177,320,-13.498030,157.77
2027,5.626953,319,-13.726695,157.77
2028,5.629729,319,-13.991022,157.77
2029,5.632505,319,-14.161523,157.77
2030,5.635281,320,-14.079988,157.77
2031,5.638057,320,-13.736706,157.77
2032,5.640833,321,-13.239106,157.77
2033,5.643609,320,-12.734203,157.77
2034,5.646385,318,-12.542661,157.77
2035,5.649161,316,-12.966640,157.77
2036,5.651937,314,-14.022616,157.77
2037,5.654713,312,-15.570319,157.77
2038,5.657489,311,-17.354475,157.77
2039,5.660265,312,-18.867277,157.77
2040,5.663041,309,-19.865731,157.77
2041,5.665817,304,-20.992563,157.77
2042,5.668593,297,-23.214013,157.77
2043,5.671369,288,-27.201124,157.77
2044,5.674145,275,-33.465508,157.77
2045,5.676921,264,-42.093483,157.77
2046,5.679697,258,-51.919557,157.77
2047,5.682473,259,-60.589478,157.77
2048,5.685249,275,-64.927419,157.77
2049,5.688025,301,-61.487589,157.77
2050,5.690801,327,-48.744472,157.77
2051,5.693577,352,-28.335937,157.77
2052,5.696353,372,-3.779500,157.77
2053,5.699129,392,21.411972,157.77
2054,5.701905,410,44.978658,157.77
2055,5.704681,424,65.675399,157.77
2056,5.707457,435,82.739938,157.77
2057,5.710233,438,95.652053,107.80
2058,5.713009,431,103.421132,107.80
2059,5.715785,415,104.521203,107.80
2060,5.718561,393,97.775170,107.80
2061,5.721337,368,83.175686,107.80
2062,5.724113,344,62.239384,107.80
2063,5.726889,324,37.872284,107.80
2064,5.729665,307,13.448648,107.80
2065,5.732441,293,-8.480491,107.80
2066,5.735217,282,-26.712578,107.80
2067,5.737993,272,-41.239002,107.80
2068,5.740769,267,-52.519964,107.80
2069,5.743545,268,-60.397734,107.80
2070,5.746321,275,-63.972653,107.80
2071,5.749097,284,-62.599980,107.80
2072,5.751873,295,-56.659421,107.80
2073,5.754649,305,-47.436691,107.80
2074,5.757425,311,-36.868370,107.80
2075,5.760201,314,-27.081354,107.80
2076,5.762977,316,-19.457366,107.80
2077,5.765753,316,-14.360794,107.80
2078,5.768529,316,-11.570536,107.80
2079,5.771305,315,-10.598027,107.80
2080,5.774081,313,-10.967620,107.80
2081,5.776857,312,-12.192692,107.80
2082,5.779633,313,-13.499171,107.80
2083,5.782409,314,-14.135253,107.80
2084,5.785185,316,-13.830472,107.80
2085,5.787961,317,-12.770652,107.80
2086,5.790737,319,-11.294206,107.80
2087,5.793513,320,-9.626395,107.80
2088,5.796289,318,-8.166818,107.80
2089,5.799065,317,-7.443606,107.80
2090,5.801841,316,-7.538711,107.80
2091,5.804617,315,-8.219963,107.80
2092,5.807393,315,-9.174614,107.80
2093,5.810169,315,-10.004891,107.80
2094,5.812945,315,-10.444557,107.80
2095,5.815721,315,-10.470361,107.80
2096,5.818497,315,-10.230148,107.80
2097,5.821273,313,-10.088473,107.80
2098,5.824049,313,-10.347675,107.80
2099,5.826825,312,-10.892523,107.80
2100,5.829601,313,-11.375563,107.80
2101,5.832377,314,-11.418474,107.80
2102,5.835153,315,-10.883908,107.80
2103,5.837929,316,-9.952278,107.80
2104,5.840705,317,-8.842712,107.80
2105,5.843481,318,-7.675111,107.80
2106,5.846257,319,-6.474625,107.80
2107,5.849033,318,-5.401497,107.80
2108,5.851809,316,-4.886944,107.80
2109,5.854585,314,-5.264111,107.80
2110,5.857361,313,-6.396898,107.80
2111,5.860137,313,-7.753944,107.80
2112,5.862913,314,-8.725916,107.80
2113,5.865689,314,-9.023886,107.80
2114,5.868465,314,-8.820374,107.80
2115,5.871241,312,-8.579501,107.80
2116,5.874017,311,-8.735501,107.80
2117,5.876793,311,-9.259838,107.80
2118,5.879569,312,-9.720205,107.80
2119,5.882345,314,-9.660774,107.80
2120,5.885121,313,-9.061050,107.80
2121,5.887897,311,-8.528920,107.80
2122,5.890673,309,-8.644416,107.80
2123,5.893449,307,-9.511574,107.80
2124,5.896225,305,-10.968805,107.80
2125,5.899001,305,-12.636233,107.80
2126,5.901777,306,-13.900206,107.80
2127,5.904553,306,-14.382489,107.80
2128,5.907329,305,-14.304743,107.80
2129,5.910105,304,-14.150874,107.80
2130,5.912881,304,-14.155467,107.80
2131,5.915657,304,-14.246803,107.80
2132,5.918433,304,-14.313474,107.80
2133,5.921209,303,-14.371679,107.80
2134,5.923985,302,-14.533759,107.80
2135,5.926761,299,-15.015512,107.80
2136,5.929537,297,-16.052185,107.80
2137,5.932313,297,-17.449462,107.80
2138,5.935089,297,-18.663382,107.80
2139,5.937865,295,-19.528135,107.80
2140,5.940641,294,-20.258299,107.80
2141,5.943417,293,-20.922041,107.80
2142,5.946193,293,-21.424819,107.80
2143,5.948969,292,-21.772233,107.80
2144,5.951745,291,-22.140786,107.80
2145,5.954521,289,-22.720444,107.80
2146,5.957297,288,-23.520142,107.80
2147,5.960073,286,-24.426268,107.80
2148,5.962849,285,-25.385640,107.80
2149,5.965625,283,-26.425701,107.80
2150,5.968401,281,-27.644363,107.80
2151,5.971177,279,-29.065504,107.80
2152,5.973953,278,-30.484193,107.80
2153,5.976729,277,-31.628955,107.80
2154,5.979505,276,-32.432233,107.80
2155,5.982281,274,-33.109412,107.80
2156,5.985057,274,-33.803254,107.80
2157,5.987833,276,-34.142521,107.80
2158,5.990609,280,-33.433074,107.80
2159,5.993385,284,-31.266390,107.80
2160,5.996161,288,-27.819873,107.80
2161,5.998937,292,-23.601212,107.80
2162,6.001713,295,-19.143632,107.80
2163,6.004489,298,-14.879436,107.80
2164,6.007265,299,-11.141274,107.80
2165,6.010041,301,-8.134705,107.80
2166,6.012817,305,-5.582873,107.80
2167,6.015593,310,-2.812198,107.80
2168,6.018369,316,0.727161,107.80
2169,6.021145,320,5.089262,107.80
2170,6.023921,323,9.755389,107.80
2171,6.026697,325,14.056918,107.80
2172,6.029473,327,17.584937,107.80
2173,6.032249,328,20.201715,107.80
2174,6.035025,330,22.015101,107.80
2175,6.037801,331,23.328162,107.80
2176,6.040577,333,24.462389,107.80
2177,6.043353,336,25.785911,107.80
2178,6.046129,339,27.589884,107.80
2179,6.048905,341,29.772810,107.80
2180,6.051681,343,31.982849,107.80
2181,6.054457,344,33.937441,107.80
2182,6.057233,345,35.495782,107.80
2183,6.060009,347,36.745791,107.80
2184,6.062785,347,37.783474,107.80
2185,6.065561,346,38.348501,107.80
2186,6.068337,346,38.243305,157.77
2187,6.071113,346,37.711839,157.77
2188,6.073889,347,37.171361,157.77
2189,6.076665,349,37.021638,157.77
2190,6.079441,350,37.418972,157.77
2191,6.082217,351,38.143618,157.77
2192,6.084993,352,38.932939,157.77
2193,6.087769,352,39.613631,157.77
2194,6.090545,353,40.093912,157.77
2195,6.093321,352,40.313944,157.77
2196,6.096097,351,40.070890,157.77
2197,6.098873,351,39.339610,157.77
2198,6.101649,351,38.426762,157.77
2199,6.104425,351,37.603273,157.77
2200,6.107201,352,37.039989,157.77
2201,6.109977,351,36.721938,157.77
2202,6.112753,349,36.244341,157.77
2203,6.115529,348,35.265396,157.77
2204,6.118305,348,33.970027,157.77
2205,6.121081,347,32.682554,157.77
2206,6.123857,346,31.450500,157.77
2207,6.126633,346,30.290805,157.77
2208,6.129409,346,29.354920,157.77
2209,6.132185,346,28.703664,157.77
2210,6.134961,347,28.337483,157.77
2211,6.137737,348,28.316517,157.77
2212,6.140513,348,28.558598,157.77
2213,6.143289,346,28.652614,157.77
2214,6.146065,345,28.193905,157.77
2215,6.148841,344,27.201081,157.77
2216,6.151617,343,25.902548,157.77
2217,6.154393,344,24.616654,157.77
2218,6.157169,346,23.855591,157.77
2219,6.159945,347,23.907502,157.77
2220,6.162721,347,24.497980,157.77
2221,6.165497,346,25.053723,157.77
2222,6.168273,345,25.117802,157.77
2223,6.171049,343,24.481601,157.77
2224,6.173825,343,23.265402,157.77
2225,6.176601,343,21.941121,157.77
2226,6.179377,344,20.985261,157.77
2227,6.182153,344,20.566790,157.77
2228,6.184929,345,20.585399,157.77
2229,6.187705,346,20.924170,157.77
2230,6.190481,346,21.411282,157.77
2231,6.193257,345,21.694537,157.77
2232,6.196033,344,21.493156,157.77
2233,6.198809,342,20.723198,157.77
2234,6.201585,341,19.455765,157.77
2235,6.204361,340,17.929758,157.77
2236,6.207137,341,16.527695,157.77
2237,6.209913,342,15.668377,157.77
2238,6.212689,343,15.523672,157.77
2239,6.215465,343,15.890387,157.77
2240,6.218241,342,16.309242,157.77
2241,6.221017,340,16.258016,157.77
2242,6.223793,340,15.574387,157.77
2243,6.226569,343,14.838906,157.77
2244,6.229345,344,14.754061,157.77
2245,6.232121,345,15.333462,157.77
2246,6.234897,346,16.262568,157.77
2247,6.237673,346,17.246572,157.77
2248,6.240449,346,17.962064,157.77
2249,6.243225,344,18.085233,157.77
2250,6.246001,343,17.431450,157.77
2251,6.248777,343,16.286860,157.77
2252,6.251553,345,15.344157,157.77
2253,6.254329,346,15.118922,157.77
2254,6.257105,347,15.555222,157.77
2255,6.259881,347,16.247272,157.77
2256,6.262657,345,16.655244,157.77
2257,6.265433,344,16.377625,157.77
2258,6.268209,343,15.492075,157.77
2259,6.270985,342,14.279346,157.77
2260,6.273761,342,12.998310,157.77
2261,6.276537,343,11.996550,157.77
2262,6.279313,344,11.574839,157.77
2263,6.282089,344,11.698109,157.77
2264,6.284865,345,12.121030,157.77
2265,6.287641,345,12.640146,157.77
2266,6.290417,345,13.032909,157.77
2267,6.293193,342,12.923101,157.77
2268,6.295969,341,12.035282,157.77
2269,6.298745,340,10.625027,157.77
2270,6.301521,341,9.274266,157.77
2271,6.304297,342,8.470172,157.77
2272,6.307073,343,8.354009,157.77
2273,6.309849,343,8.692225,157.77
2274,6.312625,343,9.136363,157.77
2275,6.315401,343,9.472246,157.77
2276,6.318177,344,9.715309,157.77
2277,6.320953,344,9.929528,157.77
2278,6.323729,343,9.960257,157.77
2279,6.326505,342,9.594739,157.77
2280,6.329281,341,8.852250,157.77
2281,6.332057,340,7.886567,157.77
2282,6.334833,340,6.880929,157.77
2283,6.337609,340,6.025499,157.77
2284,6.340385,341,5.479009,157.77
2285,6.343161,341,5.310793,157.77
2286,6.345937,341,5.403794,157.77
2287,6.348713,341,5.582017,157.77
2288,6.351489,341,5.725905,157.77
2289,6.354265,339,5.589886,157.77
2290,6.357041,340,5.064949,157.77
2291,6.359817,340,4.490108,157.77
2292,6.362593,340,4.131978,157.77
2293,6.365369,340,3.973583,157.77
2294,6.368145,341,4.012158,157.77
2295,6.370921,341,4.220305,157.77
2296,6.373697,339,4.271845,157.77
2297,6.376473,338,3.800960,157.77
2298,6.379249,338,2.957345,157.77
2299,6.382025,338,2.165126,157.77
2300,6.384801,339,1.697013,157.77
2301,6.387577,339,1.595822,157.77
2302,6.390353,337,1.525715,157.77
2303,6.393129,336,1.078675,157.77
2304,6.395905,336,0.337683,157.77
2305,6.398681,336,-0.348380,157.77
2306,6.401457,337,-0.756903,157.77
2307,6.404233,338,-0.768246,157.77
2308,6.407009,340,-0.290676,157.77
2309,6.409785,341,0.681749,157.77
2310,6.412561,340,1.794130,157.77
2311,6.415337,338,2.391222,157.77
2312,6.418113,337,2.111867,157.77
2313,6.420889,336,1.130851,157.77
2314,6.423665,337,-0.039021,157.77
2315,6.426441,339,-0.720901,157.77
2316,6.429217,340,-0.534533,157.77
2317,6.431993,341,0.332352,157.77
2318,6.434769,340,1.344651,157.77
2319,6.437545,337,1.752401,157.77
2320,6.440321,336,1.131918,157.77
2321,6.443097,336,-0.114624,157.77
2322,6.445873,336,-1.314153,157.77
2323,6.448649,336,-2.135194,157.77
2324,6.451425,335,-2.634534,157.77
2325,6.454201,334,-3.081590,157.77
2326,6.456977,333,-3.675443,157.77
2327,6.459753,334,-4.303607,157.77
2328,6.462529,335,-4.617226,157.77
2329,6.465305,336,-4.429622,157.77
2330,6.468081,336,-3.885362,157.77
2331,6.470857,336,-3.279986,157.77
2332,6.473633,334,-2.972059,157.77
2333,6.476409,333,-3.258761,157.77
2334,6.479185,331,-4.172600,157.77
2335,6.481961,332,-5.384347,157.77
2336,6.484737,333,-6.271832,157.77
2337,6.487513,335,-6.363967,157.77
2338,6.490289,336,-5.635388,157.77
2339,6.493065,336,-4.489345,157.77
2340,6.495841,336,-3.459143,157.77
2341,6.498617,336,-2.809884,157.77
2342,6.501393,337,-2.460384,157.77
2343,6.504169,337,-2.208741,157.77
2344,6.506945,337,-2.010284,157.77
2345,6.509721,337,-1.889439,157.77
2346,6.512497,338,-1.750098,157.77
2347,6.515273,339,-1.426918,157.77
2348,6.518049,338,-1.017141,157.77
2349,6.520825,337,-0.893186,157.77
2350,6.523601,337,-1.155126,157.77
2351,6.526377,336,-1.624127,157.77
2352,6.529153,336,-2.180083,157.77
2353,6.531929,336,-2.697361,157.77
2354,6.534705,335,-3.151362,157.77
2355,6.537481,334,-3.689320,157.77
2356,6.540257,334,-4.306779,157.77
2357,6.543033,333,-4.887207,157.77
2358,6.545809,333,-5.417994,157.77
2359,6.548585,334,-5.781738,157.77
2360,6.551361,334,-5.840314,157.77
2361,6.554137,334,-5.695010,157.77
2362,6.556913,333,-5.568571,157.77
2363,6.559689,333,-5.601956,157.77
2364,6.562465,332,-5.821063,157.77
2365,6.565241,332,-6.216081,157.77
2366,6.568017,332,-6.665059,157.77
2367,6.570793,334,-6.849248,157.77
2368,6.573569,336,-6.386099,157.77
2369,6.576345,336,-5.321740,157.77
2370,6.579121,336,-4.186598,157.77
2371,6.581897,335,-3.459680,157.77
2372,6.584673,334,-3.367720,157.77
2373,6.587449,334,-3.798926,157.77
2374,6.590225,335,-4.302323,157.77
2375,6.593001,335,-4.518657,157.77
2376,6.595777,335,-4.473415,157.77
2377,6.598553,335,-4.332368,157.77
2378,6.601329,335,-4.192127,157.77
2379,6.604105,334,-4.176977,157.77
2380,6.606881,335,-4.300152,157.77
2381,6.609657,335,-4.366085,157.77
2382,6.612433,335,-4.314192,157.77
2383,6.615209,334,-4.305427,157.77
2384,6.617985,333,-4.534758,157.77
2385,6.620761,334,-4.925681,157.77
2386,6.623537,333,-5.258398,157.77
2387,6.626313,333,-5.557110,157.77
2388,6.629089,332,-5.907454,157.77
2389,6.631865,333,-6.224907,157.77
2390,6.634641,333,-6.324654,157.77
2391,6.637417,333,-6.219561,157.77
2392,6.640193,332,-6.150341,157.77
2393,6.642969,331,-6.350695,157.77
2394,6.645745,329,-6.963640,157.77
2395,6.648521,329,-7.899442,157.77
2396,6.651297,330,-8.716203,157.77
2397,6.654073,332,-8.917123,157.77
2398,6.656849,333,-8.365318,157.77
2399,6.659625,333,-7.383825,157.77
2400,6.662401,334,-6.351202,157.77
2401,6.665177,335,-5.339338,157.77
2402,6.667953,337,-4.248866,157.77
2403,6.670729,339,-2.961375,157.77
2404,6.673505,342,-1.356832,157.77
2405,6.676281,345,0.691596,157.77
2406,6.679057,346,3.052107,157.77
2407,6.681833,347,5.276272,157.77
2408,6.684609,348,7.050601,157.77
2409,6.687385,348,8.265233,157.77
2410,6.690161,346,8.712459,157.77
2411,6.692937,345,8.268942,157.77
2412,6.695713,343,7.142800,157.77
2413,6.698489,343,5.728511,157.77
2414,6.701265,344,4.550101,157.77
2415,6.704041,344,3.917890,157.77
2416,6.706817,342,3.534612,157.77
2417,6.709593,339,2.794556,157.77
2418,6.712369,336,1.334370,157.77
2419,6.715145,335,-0.670678,157.77
2420,6.717921,332,-2.886180,157.77
2421,6.720697,330,-5.253948,157.77
2422,6.723473,328,-7.686742,157.77
2423,6.726249,325,-10.051375,157.77
2424,6.729025,323,-12.325275,157.77
2425,6.731801,322,-14.370231,157.77
2426,6.734577,321,-16.036723,157.77
2427,6.737353,322,-17.212908,157.77
2428,6.740129,322,-17.766492,157.77
2429,6.742905,323,-17.692685,157.77
2430,6.745681,325,-16.965954,157.77
2431,6.748457,326,-15.636381,157.77
2432,6.751233,325,-14.220635,157.77
2433,6.754009,325,-13.311659,157.77
2434,6.756785,324,-13.043819,157.77
2435,6.759561,322,-13.365785,157.77
2436,6.762337,323,-14.024652,157.77
2437,6.765113,324,-14.440503,157.77
2438,6.767889,326,-14.221112,157.77
2439,6.770665,327,-13.383582,157.77
2440,6.773441,328,-12.182861,157.77
2441,6.776217,327,-10.997178,157.77
2442,6.778993,323,-10.468365,157.77
2443,6.781769,319,-11.275695,157.77
2444,6.784545,317,-13.397136,157.77
2445,6.787321,316,-16.076192,157.77
2446,6.790097,313,-18.686065,157.77
2447,6.792873,308,-21.314972,157.77
2448,6.795649,301,-24.510904,157.77
2449,6.798425,291,-28.969363,157.77
2450,6.801201,279,-35.385006,157.77
2451,6.803977,269,-43.857698,157.77
2452,6.806753,264,-53.234213,157.77
2453,6.809529,268,-61.091461,157.77
2454,6.812305,284,-64.191589,157.77
2455,6.815081,309,-59.526545,157.77
2456,6.817857,334,-46.125220,157.77
2457,6.820633,357,-25.883114,157.77
2458,6.823409,375,-2.385631,157.77
2459,6.826185,395,21.183488,157.77
2460,6.828961,413,43.244157,107.80
2461,6.831737,428,63.077041,107.80
2462,6.834513,439,80.010628,107.80
2463,6.837289,441,93.127886,107.80
2464,6.840065,431,100.740548,107.80
2465,6.842841,416,101.088078,107.80
2466,6.845617,395,93.591798,107.80
2467,6.848393,370,78.732802,107.80
2468,6.851169,346,57.912366,107.80
2469,6.853945,326,33.789157,107.80
2470,6.856721,309,9.582543,107.80
2471,6.859497,297,-12.068795,107.80
2472,6.862273,288,-29.640202,107.80
2473,6.865049,281,-42.878507,107.80
2474,6.867825,275,-52.489907,107.80
2475,6.870601,276,-58.985645,107.80
2476,6.873377,280,-62.021576,107.80
2477,6.876153,288,-61.155264,107.80
2478,6.878929,298,-56.463684,107.80
2479,6.881705,308,-48.659736,107.80
2480,6.884481,314,-39.232343,107.80
2481,6.887257,319,-29.953990,107.80
2482,6.890033,320,-22.172320,107.80
2483,6.892809,322,-16.536903,107.80
2484,6.895585,322,-13.006381,107.80
2485,6.898361,322,-11.249549,107.80
2486,6.901137,321,-10.862653,107.80
2487,6.903913,321,-11.277183,107.80
2488,6.906689,320,-11.921171,107.80
2489,6.909465,320,-12.460773,107.80
2490,6.912241,320,-12.777269,107.80
2491,6.915017,322,-12.757250,107.80
2492,6.917793,323,-12.274339,107.80
2493,6.920569,323,-11.453741,107.80
2494,6.923345,322,-10.661338,107.80
2495,6.926121,323,-10.056251,107.80
2496,6.928897,322,-9.621443,107.80
2497,6.931673,322,-9.484698,107.80
2498,6.934449,322,-9.647812,107.80
2499,6.937225,323,-9.803939,107.80
2500,6.940001,323,-9.661437,107.80
2501,6.942777,322,-9.312654,107.80
2502,6.945553,322,-9.058205,107.80
2503,6.948329,322,-8.997006,107.80
2504,6.951105,322,-9.081943,107.80
2505,6.953881,322,-9.211696,107.80
2506,6.956657,322,-9.241881,107.80
2507,6.959433,322,-9.094681,107.80
2508,6.962209,321,-8.909092,107.80
2509,6.964985,322,-8.835534,107.80
2510,6.967761,322,-8.793908,107.80
2511,6.970537,323,-8.639337,107.80
2512,6.973313,321,-8.426214,107.80
2513,6.976089,321,-8.366668,107.80
2514,6.978865,319,-8.590792,107.80
2515,6.981641,319,-9.141531,107.80
2516,6.984417,319,-9.839637,107.80
2517,6.987193,318,-10.474660,107.80
2518,6.989969,316,-11.133668,107.80
2519,6.992745,314,-11.997734,107.80
2520,6.995521,314,-13.000257,107.80
2521,6.998297,316,-13.694741,107.80
2522,7.001073,318,-13.627599,107.80
2523,7.003849,320,-12.702668,107.80
2524,7.006625,320,-11.208607,107.80
2525,7.009401,319,-9.728534,107.80
2526,7.012177,318,-8.797440,107.80
2527,7.014953,317,-8.632015,107.80
2528,7.017729,318,-9.028123,107.80
2529,7.020505,319,-9.428882,107.80
2530,7.023281,317,-9.599060,107.80
2531,7.026057,316,-9.789519,107.80
2532,7.028833,314,-10.215610,107.80
2533,7.031609,313,-10.980993,107.80
2534,7.034385,312,-12.064888,107.80
2535,7.037161,311,-13.308006,107.80
2536,7.039937,310,-14.499585,107.80
2537,7.042713,310,-15.367139,107.80
2538,7.045489,309,-15.797503,107.80
2539,7.048265,308,-16.052123,107.80
2540,7.051041,307,-16.477519,107.80
2541,7.053817,307,-17.099616,107.80
2542,7.056593,308,-17.551341,107.80
2543,7.059369,308,-17.487119,107.80
2544,7.062145,306,-17.141646,107.80
2545,7.064921,302,-17.296768,107.80
2546,7.067697,299,-18.562782,107.80
2547,7.070473,298,-20.695807,107.80
2548,7.073249,297,-22.900401,107.80
2549,7.076025,296,-24.621003,107.80
2550,7.078801,294,-25.823960,107.80
2551,7.081577,292,-26.822498,107.80
2552,7.084353,290,-27.930608,107.80
2553,7.087129,291,-29.044836,107.80
2554,7.089905,291,-29.732676,107.80
2555,7.092681,290,-29.914525,107.80
2556,7.095457,289,-29.891347,107.80
2557,7.098233,287,-29.979578,107.80
2558,7.101009,284,-30.541997,107.80
2559,7.103785,282,-31.781061,107.80
2560,7.106561,282,-33.342616,107.80
2561,7.109337,284,-34.410208,107.80
2562,7.112113,285,-34.389253,107.80
2563,7.114889,287,-33.291786,107.80
2564,7.117665,288,-31.475938,107.80
2565,7.120441,290,-29.348428,107.80
2566,7.123217,292,-27.122566,107.80
2567,7.125993,293,-24.915492,107.80
2568,7.128769,295,-22.817266,107.80
2569,7.131545,298,-20.648947,107.80
2570,7.134321,303,-17.993510,107.80
2571,7.137097,308,-14.510520,107.80
2572,7.139873,312,-10.296219,107.80
2573,7.142649,316,-5.767248,107.80
2574,7.145425,318,-1.378603,107.80
2575,7.148201,321,2.519951,107.80
2576,7.150977,324,5.908343,107.80
2577,7.153753,327,8.943680,107.80
2578,7.156529,329,11.674360,107.80
2579,7.159305,333,14.235560,107.80
2580,7.162081,335,16.860697,107.80
2581,7.164857,337,19.482013,107.80
2582,7.167633,339,21.885179,107.80
2583,7.170409,342,24.071013,107.80
2584,7.173185,343,26.063109,107.80
2585,7.175961,345,27.788662,107.80
2586,7.178737,347,29.355576,107.80
2587,7.181513,349,30.958914,107.80
2588,7.184289,349,32.474736,107.80
2589,7.187065,350,33.594723,107.80
2590,7.189841,352,34.373500,107.80
2591,7.192617,353,35.104669,107.80
2592,7.195393,353,35.795484,107.80
2593,7.198169,354,36.337316,107.80
2594,7.200945,354,36.726838,107.80
2595,7.203721,354,36.887089,107.80
2596,7.206497,353,36.669993,107.80
2597,7.209273,351,35.915887,107.80
2598,7.212049,350,34.624775,107.80
2599,7.214825,349,33.078048,107.80
2600,7.217601,349,31.605341,107.80
2601,7.220377,350,30.499540,107.80
2602,7.223153,351,29.964728,107.80
2603,7.225929,352,29.997331,107.80
2604,7.228705,353,30.467024,107.80
2605,7.231481,353,31.137412,107.80
2606,7.234257,353,31.678347,107.80
2607,7.237033,353,31.876048,107.80
2608,7.239809,350,31.490328,107.80
2609,7.242585,349,30.322780,107.80
2610,7.245361,348,28.675556,107.80
2611,7.248137,349,27.151376,107.80
2612,7.250913,350,26.226320,107.80
2613,7.253689,350,25.928689,107.80
2614,7.256465,349,25.832859,107.80
2615,7.259241,350,25.677178,107.80
2616,7.262017,350,25.574738,107.80
2617,7.264793,351,25.620438,107.80
2618,7.267569,352,25.838070,107.80
2619,7.270345,351,26.071257,107.80
2620,7.273121,348,25.802961,107.80
2621,7.275897,347,24.737038,107.80
2622,7.278673,346,23.199467,107.80
2623,7.281449,348,21.821488,107.80
2624,7.284225,349,21.122866,107.80
2625,7.287001,349,21.067315,107.80
2626,7.289777,348,21.178966,107.80
2627,7.292553,348,21.143515,107.80
2628,7.295329,347,20.903021,107.80
2629,7.298105,345,20.283065,107.80
2630,7.300881,344,19.111915,107.80
2631,7.303657,344,17.645650,107.80
2632,7.306433,343,16.286016,107.80
2633,7.309209,343,15.221769,107.80
2634,7.311985,343,14.532488,107.80
2635,7.314761,343,14.164459,107.80
2636,7.317537,342,13.855958,107.80
2637,7.320313,342,13.396834,107.80
2638,7.323089,342,12.878045,107.80
2639,7.325865,341,12.408681,107.80
2640,7.328641,342,12.029166,107.80
2641,7.331417,342,11.843121,107.80
2642,7.334193,342,11.774664,107.80
2643,7.336969,341,11.592556,107.80
2644,7.339745,340,11.135763,107.80
2645,7.342521,339,10.406279,107.80
2646,7.345297,338,9.497935,107.80
2647,7.348073,338,8.535526,107.80
2648,7.350849,340,7.844311,107.80
2649,7.353625,343,7.920356,107.80
2650,7.356401,343,8.829253,107.80
2651,7.359177,342,9.928133,107.80
2652,7.361953,341,10.552546,107.80
2653,7.364729,341,10.556904,107.80
2654,7.367505,341,10.153165,107.80
2655,7.370281,341,9.585288,107.80
2656,7.373057,340,8.964824,107.80
2657,7.375833,340,8.365232,107.80
2658,7.378609,339,7.856242,107.80
2659,7.381385,339,7.393787,107.80
2660,7.384161,340,7.015086,107.80
2661,7.386937,340,6.816552,107.80
2662,7.389713,341,6.818628,107.80
2663,7.392489,341,7.055466,107.80
2664,7.395265,340,7.358877,107.80
2665,7.398041,340,7.451585,107.80
2666,7.400817,340,7.286362,107.80
2667,7.403593,340,6.949047,107.80
2668,7.406369,339,6.480040,107.80
2669,7.409145,340,6.025656,107.80
2670,7.411921,340,5.848262,107.80
2671,7.414697,341,6.004157,107.80
2672,7.417473,341,6.325892,107.80
2673,7.420249,342,6.649338,107.80
2674,7.423025,342,6.943422,107.80
2675,7.425801,341,7.126876,107.80
2676,7.428577,338,6.863182,107.80
2677,7.431353,336,5.831962,107.80
2678,7.434129,336,4.236298,107.80
2679,7.436905,338,2.816374,107.80
2680,7.439681,340,2.275238,107.80
2681,7.442457,342,2.837267,107.80
2682,7.445233,342,4.162917,107.80
2683,7.448009,341,5.499403,107.80
2684,7.450785,339,6.096533,107.80
2685,7.453561,338,5.662495,107.80
2686,7.456337,338,4.543699,107.80
2687,7.459113,339,3.451536,107.80
2688,7.461889,339,2.880978,107.80
2689,7.464665,339,2.813722,107.80
2690,7.467441,339,2.974539,107.80
2691,7.470217,339,3.119597,107.80
2692,7.472993,338,3.045072,107.80
2693,7.475769,338,2.693724,107.80
2694,7.478545,338,2.273314,107.80
2695,7.481321,338,1.994977,107.80
2696,7.484097,338,1.866398,107.80
2697,7.486873,336,1.633280,107.80
2698,7.489649,335,0.976993,107.80
2699,7.492425,334,-0.057545,107.80
2700,7.495201,333,-1.207718,107.80
2701,7.497977,332,-2.318072,107.80
2702,7.500753,333,-3.208204,107.80
2703,7.503529,335,-3.530819,107.80
2704,7.506305,336,-3.120029,107.80
2705,7.509081,338,-2.117874,107.80
2706,7.511857,338,-0.793171,107.80
2707,7.514633,339,0.514627,107.80
2708,7.517409,338,1.493727,107.80
2709,7.520185,336,1.762250,107.80
2710,7.522961,336,1.219955,107.80
2711,7.525737,337,0.419059,107.80
2712,7.528513,338,-0.001046,107.80
2713,7.531289,337,0.025475,107.80
2714,7.534065,336,0.070221,107.80
2715,7.536841,336,-0.131049,107.80
2716,7.539617,334,-0.625432,107.80
2717,7.542393,334,-1.423291,107.80
2718,7.545169,333,-2.334865,107.80
2719,7.547945,333,-3.148330,107.80
2720,7.550721,332,-3.803500,107.80
2721,7.553497,332,-4.336749,107.80
2722,7.556273,331,-4.817408,107.80
2723,7.559049,332,-5.216903,107.80
2724,7.561825,332,-5.384829,107.80
2725,7.564601,333,-5.243793,107.80
2726,7.567377,332,-4.929990,107.80
2727,7.570153,332,-4.707101,107.80
2728,7.572929,332,-4.658493,107.80
2729,7.575705,331,-4.775976,107.80
2730,7.578481,331,-5.084426,107.80
2731,7.581257,332,-5.363772,107.80
2732,7.584033,332,-5.372761,107.80
2733,7.586809,331,-5.259217,107.80
2734,7.589585,330,-5.351970,107.80
2735,7.592361,330,-5.713345,107.80
2736,7.595137,330,-6.135580,107.80
2737,7.597913,331,-6.373243,107.80
2738,7.600689,331,-6.310003,107.80
2739,7.603465,331,-6.058652,107.80
2740,7.606241,331,-5.783613,107.80
2741,7.609017,332,-5.479562,107.80
2742,7.611793,332,-5.098787,107.80
2743,7.614569,332,-4.745065,107.80
2744,7.617345,330,-4.676172,107.80
2745,7.620121,330,-5.028100,107.80
2746,7.622897,330,-5.547750,107.80
2747,7.625673,330,-5.947447,107.80
2748,7.628449,329,-6.261321,107.80
2749,7.631225,329,-6.609636,107.80
2750,7.634001,329,-6.924974,107.80
2751,7.636777,329,-7.091012,107.80
2752,7.639553,330,-7.032153,107.80
2753,7.642329,330,-6.733852,107.80
2754,7.645105,330,-6.364462,107.80
2755,7.647881,330,-6.085148,107.80
2756,7.650657,331,-5.830915,107.80
2757,7.653433,331,-5.479965,107.80
2758,7.656209,330,-5.179432,107.80
2759,7.658985,328,-5.292657,107.80
2760,7.661761,326,-6.063190,107.80
2761,7.664537,326,-7.292850,107.80
2762,7.667313,326,-8.448152,107.80
2763,7.670089,327,-9.118994,107.80
2764,7.672865,328,-9.142949,107.80
2765,7.675641,328,-8.650472,107.80
2766,7.678417,328,-7.997359,107.80
2767,7.681193,329,-7.368883,107.80
2768,7.683969,330,-6.691897,107.80
2769,7.686745,330,-5.979364,107.80
2770,7.689521,328,-5.560401,107.80
2771,7.692297,327,-5.750309,107.80
2772,7.695073,326,-6.451292,107.80
2773,7.697849,326,-7.319810,107.80
2774,7.700625,326,-8.051613,107.80
2775,7.703401,328,-8.360378,107.80
2776,7.706177,330,-7.944188,107.80
2777,7.708953,331,-6.804700,107.80
2778,7.711729,331,-5.379275,107.80
2779,7.714505,332,-4.087004,107.80
2780,7.717281,333,-3.008810,107.80
2781,7.720057,334,-2.075261,107.80
2782,7.722833,334,-1.298642,107.80
2783,7.725609,333,-0.828138,107.80
2784,7.728385,332,-0.811296,107.80
2785,7.731161,330,-1.312136,107.80
2786,7.733937,328,-2.388998,107.80
2787,7.736713,328,-3.848272,107.80
2788,7.739489,328,-5.189375,107.80
2789,7.742265,330,-5.909791,107.80
2790,7.745041,331,-5.732082,107.80
2791,7.747817,332,-4.817276,107.80
2792,7.750593,332,-3.640107,107.80
2793,7.753369,332,-2.661639,107.80
2794,7.756145,331,-2.172694,107.80
2795,7.758921,330,-2.270411,107.80
2796,7.761697,329,-2.850195,107.80
2797,7.764473,329,-3.624756,107.80
2798,7.767249,330,-4.207569,107.80
2799,7.770025,331,-4.312992,107.80
2800,7.772801,332,-3.917832,107.80
2801,7.775577,333,-3.145611,107.80
2802,7.778353,332,-2.280169,107.80
2803,7.781129,333,-1.602193,107.80
2804,7.783905,334,-1.034153,107.80
2805,7.786681,334,-0.486205,107.80
2806,7.789457,333,-0.170053,107.80
2807,7.792233,333,-0.210655,107.80
2808,7.795009,334,-0.337638,107.80
2809,7.797785,336,-0.106656,107.80
2810,7.800561,337,0.647158,107.80
2811,7.803337,338,1.700272,107.80
2812,7.806113,339,2.800783,107.80
2813,7.808889,340,3.879352,107.80
2814,7.811665,341,4.944829,107.80
2815,7.814441,342,5.988124,107.80
2816,7.817217,344,7.042489,107.80
2817,7.819993,346,8.235177,107.80
2818,7.822769,347,9.575653,107.80
2819,7.825545,347,10.829255,107.80
2820,7.828321,345,11.582730,107.80
2821,7.831097,343,11.442456,107.80
2822,7.833873,342,10.416264,107.80
2823,7.836649,341,8.893161,107.80
2824,7.839425,339,7.175427,107.80
2825,7.842201,335,5.186859,107.80
2826,7.844977,332,2.747645,107.80
2827,7.847753,330,0.030681,107.80
2828,7.850529,329,-2.553376,107.80
2829,7.853305,328,-4.724231,107.80
2830,7.856081,327,-6.427572,107.80
2831,7.858857,326,-7.712085,107.80
2832,7.861633,324,-8.721998,107.80
2833,7.864409,324,-9.586467,107.80
2834,7.867185,325,-10.159414,107.80
2835,7.869961,326,-10.251492,107.80
2836,7.872737,327,-9.876075,107.80
2837,7.875513,325,-9.339357,107.80
2838,7.878289,322,-9.256449,107.80
2839,7.881065,319,-10.085519,107.80
2840,7.883841,318,-11.715679,107.80
2841,7.886617,320,-13.417653,107.80
2842,7.889393,322,-14.302975,107.80
2843,7.892169,323,-14.052573,107.80
2844,7.894945,322,-13.081252,107.80
2845,7.897721,322,-12.026025,107.80
2846,7.900497,322,-11.234733,107.80
2847,7.903273,321,-10.904459,107.80
2848,7.906049,320,-11.189747,107.80
2849,7.908825,320,-11.876860,107.80
2850,7.911601,318,-12.616283,107.80
2851,7.914377,315,-13.501472,107.80
2852,7.917153,314,-14.736504,107.80
2853,7.919929,315,-16.027286,107.80
2854,7.922705,314,-17.009476,107.80
2855,7.925481,309,-18.046251,107.80
2856,7.928257,301,-20.106864,107.80
2857,7.931033,289,-24.209592,107.80
2858,7.933809,275,-31.143751,107.80
2859,7.936585,265,-40.762780,107.80
2860,7.939361,262,-51.246568,107.80
2861,7.942137,270,-59.334010,107.80
2862,7.944913,293,-60.980229,107.80
2863,7.947689,320,-53.078313,107.80
2864,7.950465,344,-35.923589,107.80
2865,7.953241,365,-13.029254,107.80
2866,7.956017,381,11.270359,107.80
2867,7.958793,397,33.778045,107.80
2868,7.961569,414,53.425030,107.80
2869,7.964345,428,70.507771,107.80
2870,7.967121,436,85.003963,107.80
2871,7.969897,434,95.774220,107.80
2872,7.972673,422,100.823623,107.80
2873,7.975449,402,98.288685,107.80
2874,7.978225,376,87.331917,107.80
2875,7.981001,349,68.580273,107.80
2876,7.983777,325,44.320105,107.80
2877,7.986553,307,18.112651,107.80
2878,7.989329,295,-6.253915,107.80
2879,7.992105,286,-26.109857,107.80
2880,7.994881,279,-40.681000,107.80
2881,7.997657,272,-50.784794,107.80
2882,8.000433,270,-57.613846,107.80
2883,8.003209,272,-61.566214,107.80
2884,8.005985,279,-62.281070,107.80
2885,8.008761,290,-59.218731,107.80
2886,8.011537,301,-52.347106,107.80
2887,8.014313,310,-42.715531,107.80
2888,8.017089,316,-32.164805,107.80
2889,8.019865,319,-22.574401,107.80
2890,8.022641,320,-15.256054,107.80
2891,8.025417,321,-10.586773,107.80
2892,8.028193,320,-8.227198,107.80
2893,8.030969,319,-7.642095,107.80
2894,8.033745,319,-8.121684,107.80
2895,8.036521,319,-8.875760,107.80
2896,8.039297,320,-9.358061,107.80
2897,8.042073,321,-9.310371,107.80
2898,8.044849,324,-8.588782,107.80
2899,8.047625,325,-7.199059,107.80
2900,8.050401,325,-5.570244,107.80
2901,8.053177,324,-4.304746,107.80
2902,8.055953,323,-3.747171,107.80
2903,8.058729,323,-3.837382,107.80
2904,8.061505,324,-4.158091,107.80
2905,8.064281,324,-4.337159,107.80
2906,8.067057,325,-4.244473,107.80
2907,8.069833,326,-3.786840,107.80
2908,8.072609,326,-3.028144,107.80
2909,8.075385,326,-2.276918,107.80
2910,8.078161,325,-1.851290,107.80
2911,8.080937,323,-2.019852,107.80
2912,8.083713,322,-2.823433,107.80
2913,8.086489,321,-3.956590,107.80
2914,8.089265,321,-5.032698,107.80
2915,8.092041,321,-5.794131,107.80
2916,8.094817,322,-6.118525,107.80
2917,8.097593,322,-6.021093,107.80
2918,8.100369,323,-5.608126,107.80
2919,8.103145,322,-5.062575,107.80
2920,8.105921,322,-4.648709,107.80
2921,8.108697,322,-4.457950,107.80
2922,8.111473,321,-4.494925,107.80
2923,8.114249,321,-4.774927,107.80
2924,8.117025,321,-5.115921,107.80
2925,8.119801,321,-5.314394,107.80
2926,8.122577,321,-5.331367,107.80
2927,8.125353,320,-5.313143,107.80
2928,8.128129,319,-5.511468,107.80
2929,8.130905,317,-6.111191,107.80
2930,8.133681,317,-7.029575,107.80
2931,8.136457,319,-7.721789,107.80
2932,8.139233,319,-7.748350,107.80
2933,8.142009,318,-7.406637,107.80
2934,8.144785,316,-7.312858,107.80
2935,8.147561,316,-7.679299,107.80
2936,8.150337,316,-8.200407,107.80
2937,8.153113,316,-8.574433,107.80
2938,8.155889,317,-8.674933,107.80
2939,8.158665,317,-8.459289,107.80
2940,8.161441,317,-8.065700,107.80
2941,8.164217,316,-7.735372,107.80
2942,8.166993,315,-7.695519,107.80
2943,8.169769,315,-7.965545,107.80
2944,8.172545,314,-8.405931,107.80
2945,8.175321,313,-8.990990,107.80
2946,8.178097,311,-9.789215,107.80
2947,8.180873,308,-10.953569,107.80
2948,8.183649,305,-12.647055,107.80
2949,8.186425,304,-14.709094,107.80
2950,8.189201,304,-16.610412,107.80
2951,8.191977,303,-17.979576,107.80
2952,8.194753,302,-18.882594,107.80
2953,8.197529,301,-19.506252,107.80
2954,8.200305,302,-19.828565,107.80
2955,8.203081,300,-19.898435,107.80
2956,8.205857,298,-20.183061,107.80
2957,8.208633,296,-21.033289,107.80
2958,8.211409,294,-22.358417,107.80
2959,8.214185,293,-23.847030,107.80
2960,8.216961,292,-25.165194,107.80
2961,8.219737,292,-26.118401,107.80
2962,8.222513,291,-26.705051,107.80
2963,8.225289,290,-27.112028,107.80
2964,8.228065,289,-27.498958,107.80
2965,8.230841,288,-27.892946,107.80
2966,8.233617,287,-28.307802,107.80
2967,8.236393,287,-28.706764,107.80
2968,8.239169,287,-28.961268,107.80
2969,8.241945,288,-28.906246,107.80
2970,8.244721,288,-28.455717,107.80
2971,8.247497,290,-27.585551,107.80
2972,8.250273,293,-26.114996,107.80
2973,8.253049,294,-24.061975,107.80
2974,8.255825,297,-21.739270,107.80
2975,8.258601,300,-19.191127,107.80
2976,8.261377,304,-16.241434,107.80
2977,8.264153,308,-12.779499,107.80
2978,8.266929,311,-8.948053,107.80
2979,8.269705,314,-5.119063,107.80
2980,8.272481,317,-1.544822,107.80
2981,8.275257,320,1.752177,107.80
2982,8.278033,322,4.783841,107.80
2983,8.280809,324,7.490538,107.80
2984,8.283585,326,9.861751,107.80
2985,8.286361,328,11.966824,107.80
2986,8.289137,331,13.963074,107.80
2987,8.291913,333,16.014063,107.80
2988,8.294689,336,18.179372,107.80
2989,8.297465,338,20.462025,107.80
2990,8.300241,342,22.896383,107.80
2991,8.303017,344,25.490632,107.80
2992,8.305793,345,27.929275,107.80
2993,8.308569,345,29.750631,108.07
2994,8.311345,346,30.842199,108.07
2995,8.314121,346,31.401636,108.07
2996,8.316897,348,31.728396,108.07
2997,8.319673,350,32.208069,108.07
2998,8.322449,351,32.999122,108.07
2999,8.325225,350,33.773461,108.07
3000,8.328001,349,34.066810,108.07
3001,8.330777,348,33.717243,108.07
3002,8.333553,347,32.831952,108.07
3003,8.336329,347,31.644427,108.07
3004,8.339105,349,30.630706,108.07
3005,8.341881,351,30.337624,108.07
3006,8.344657,352,30.876874,108.07
3007,8.347433,352,31.826727,108.07
3008,8.350209,351,32.569828,108.07
3009,8.352985,349,32.574542,108.07
3010,8.355761,349,31.753951,108.07
3011,8.358537,349,30.570558,108.07
3012,8.361313,349,29.506859,108.07
3013,8.364089,349,28.751279,108.07
3014,8.366865,350,28.370036,108.07
3015,8.369641,349,28.242631,108.07
3016,8.372417,349,28.050345,108.07
3017,8.375193,347,27.530388,108.07
3018,8.377969,346,26.559697,108.07
3019,8.380745,345,25.268779,108.07
3020,8.383521,345,23.968619,108.07
3021,8.386297,345,22.907850,108.07
3022,8.389073,345,22.156941,108.07
3023,8.391849,343,21.497849,108.07
3024,8.394625,342,20.627551,108.07
3025,8.397401,342,19.609541,108.07
3026,8.400177,343,18.811160,108.07
3027,8.402953,344,18.487249,108.07
3028,8.405729,345,18.635497,108.07
3029,8.408505,344,18.977109,108.07
3030,8.411281,344,19.168697,108.07
3031,8.414057,342,18.999951,108.07
3032,8.416833,341,18.317913,108.07
3033,8.419609,340,17.168078,108.07
3034,8.422385,341,15.919209,108.07
3035,8.425161,341,15.002611,108.07
3036,8.427937,340,14.461429,108.07
3037,8.430713,339,14.007528,108.07
3038,8.433489,340,13.570987,108.07
3039,8.436265,341,13.365539,108.07
3040,8.439041,341,13.420531,108.07
3041,8.441817,342,13.602989,108.07
3042,8.444593,341,13.817773,108.07
3043,8.447369,341,13.917986,108.07
3044,8.450145,341,13.866350,108.07
3045,8.452921,340,13.621205,108.07
3046,8.455697,340,13.094106,108.07
3047,8.458473,339,12.361312,108.07
3048,8.461249,339,11.591020,108.07
3049,8.464025,339,10.991665,108.07
3050,8.466801,339,10.649007,108.07
3051,8.469577,339,10.447335,108.07
3052,8.472353,339,10.252084,108.07
3053,8.475129,338,9.952827,108.07
3054,8.477905,337,9.452187,108.07
3055,8.480681,336,8.747163,108.07
3056,8.483457,336,7.959597,108.07
3057,8.486233,336,7.250248,108.07
3058,8.489009,335,6.610911,108.07
3059,8.491785,334,5.890105,108.07
3060,8.494561,334,5.132887,108.07
3061,8.497337,334,4.567352,108.07
3062,8.500113,335,4.342671,108.07
3063,8.502889,336,4.491694,108.07
3064,8.505665,337,4.949190,108.07
3065,8.508441,337,5.549831,108.07
3066,8.511217,338,6.179458,108.07
3067,8.513993,337,6.741026,108.07
3068,8.516769,336,6.947034,108.07
3069,8.519545,335,6.576125,108.07
3070,8.522321,336,5.847223,108.07
3071,8.525097,335,5.138430,108.07
3072,8.527873,335,4.573909,108.07
3073,8.530649,336,4.279265,108.07
3074,8.533425,338,4.507039,108.07
3075,8.536201,338,5.196935,108.07
3076,8.538977,338,5.906734,108.07
3077,8.541753,337,6.260898,108.07
3078,8.544529,336,6.138923,108.07
3079,8.547305,335,5.596110,108.07
3080,8.550081,334,4.749285,108.07
3081,8.552857,335,3.830471,108.07
3082,8.555633,336,3.234096,108.07
3083,8.558409,336,3.122386,108.07
3084,8.561185,336,3.320773,108.07
3085,8.563961,337,3.705350,108.07
3086,8.566737,337,4.210833,108.07
3087,8.569513,335,4.463373,108.07
3088,8.572289,335,4.133715,108.07
3089,8.575065,334,3.396883,108.07
3090,8.577841,334,2.589127,108.07
3091,8.580617,335,2.044411,108.07
3092,8.583393,335,1.930231,108.07
3093,8.586169,334,1.964435,108.07
3094,8.588945,333,1.746124,108.07
3095,8.591721,331,1.086690,108.07
3096,8.594497,330,0.025320,108.07
3097,8.597273,330,-1.131257,108.07
3098,8.600049,331,-1.966028,108.07
3099,8.602825,331,-2.313034,108.07
3100,8.605601,331,-2.337677,108.07
3101,8.608377,333,-2.072605,108.07
3102,8.611153,334,-1.344622,108.07
3103,8.613929,335,-0.247857,108.07
3104,8.616705,336,0.935701,108.07
3105,8.619481,336,1.953229,108.07
3106,8.622257,337,2.688739,108.07
3107,8.625033,335,3.072389,108.07
3108,8.627809,334,2.912411,108.07
3109,8.630585,333,2.225794,108.07
3110,8.633361,333,1.296511,108.07
3111,8.636137,333,0.422732,108.07
3112,8.638913,333,-0.214806,108.07
3113,8.641689,333,-0.568090,108.07
3114,8.644465,334,-0.581263,108.07
3115,8.647241,334,-0.267642,108.07
3116,8.650017,335,0.211925,108.07
3117,8.652793,335,0.697727,108.07
3118,8.655569,335,1.053131,108.07
3119,8.658345,334,1.160543,108.07
3120,8.661121,333,0.942401,108.07
3121,8.663897,332,0.389566,108.07
3122,8.666673,332,-0.367317,108.07
3123,8.669449,331,-1.181453,108.07
3124,8.672225,332,-1.893789,108.07
3125,8.675001,331,-2.343875,108.07
3126,8.677777,332,-2.504283,108.07
3127,8.680553,332,-2.379530,108.07
3128,8.683329,332,-2.111655,108.07
3129,8.686105,331,-2.001082,108.07
3130,8.688881,331,-2.183948,108.07
3131,8.691657,331,-2.495200,108.07
3132,8.694433,331,-2.717558,108.07
3133,8.697209,329,-2.958187,108.07
3134,8.699985,327,-3.595929,108.07
3135,8.702761,327,-4.672706,108.07
3136,8.705537,329,-5.599030,108.07
3137,8.708313,331,-5.716084,108.07
3138,8.711089,332,-4.928499,108.07
3139,8.713865,333,-3.621746,108.07
3140,8.716641,334,-2.185894,108.07
3141,8.719417,333,-0.994642,108.07
3142,8.722193,333,-0.376597,108.07
3143,8.724969,332,-0.358746,108.07
3144,8.727745,332,-0.744249,108.07
3145,8.730521,331,-1.309698,108.07
3146,8.733297,330,-1.984377,108.07
3147,8.736073,330,-2.716421,108.07
3148,8.738849,330,-3.328478,108.07
3149,8.741625,331,-3.642950,108.07
3150,8.744401,332,-3.519750,108.07
3151,8.747177,332,-3.023710,108.07
3152,8.749953,333,-2.362187,108.07
3153,8.752729,333,-1.674327,108.07
3154,8.755505,333,-1.124197,108.07
3155,8.758281,332,-0.903190,108.07
3156,8.761057,332,-1.050828,108.07
3157,8.763833,331,-1.445704,108.07
3158,8.766609,332,-1.874489,108.07
3159,8.769385,330,-2.253032,108.07
3160,8.772161,329,-2.811351,108.07
3161,8.774937,327,-3.733652,108.07
3162,8.777713,326,-4.961985,108.07
3163,8.780489,326,-6.212557,108.07
3164,8.783265,327,-7.062011,108.07
3165,8.786041,327,-7.329773,108.07
3166,8.788817,328,-7.128461,108.07
3167,8.791593,328,-6.633087,108.07
3168,8.794369,329,-5.991594,108.07
3169,8.797145,330,-5.235787,108.07
3170,8.799921,331,-4.358935,108.07
3171,8.802697,330,-3.569054,108.07
3172,8.805473,330,-3.142114,108.07
3173,8.808249,329,-3.123533,108.07
3174,8.811025,329,-3.394468,108.07
3175,8.813801,329,-3.757277,108.07
3176,8.816577,329,-4.053434,108.07
3177,8.819353,329,-4.247825,108.07
3178,8.822129,329,-4.337160,108.07
3179,8.824905,329,-4.327230,108.07
3180,8.827681,330,-4.169863,108.07
3181,8.830457,330,-3.839088,108.07
3182,8.833233,331,-3.406658,108.07
3183,8.836009,331,-2.934658,108.07
3184,8.838785,333,-2.360440,108.07
3185,8.841561,332,-1.672882,108.07
3186,8.844337,332,-1.136693,108.07
3187,8.847113,331,-0.976147,108.07
3188,8.849889,331,-1.179169,108.07
3189,8.852665,330,-1.636314,108.07
3190,8.855441,331,-2.135930,108.07
3191,8.858217,331,-2.407303,108.07
3192,8.860993,332,-2.331756,108.07
3193,8.863769,332,-1.980637,108.07
3194,8.866545,332,-1.560488,108.07
3195,8.869321,332,-1.256923,108.07
3196,8.872097,333,-1.022196,108.07
3197,8.874873,333,-0.733118,108.07
3198,8.877649,332,-0.512853,108.07
3199,8.880425,329,-0.771453,108.07
3200,8.883201,327,-1.819120,108.07
3201,8.885977,327,-3.371683,108.07
3202,8.888753,329,-4.635096,108.07
3203,8.891529,330,-5.026171,108.07
3204,8.894305,331,-4.584198,108.07
3205,8.897081,330,-3.777752,108.07
3206,8.899857,330,-3.103047,108.07
3207,8.902633,330,-2.725110,108.07
3208,8.905409,331,-2.514625,108.07
3209,8.908185,331,-2.334686,108.07
3210,8.910961,332,-2.107493,108.07
3211,8.913737,332,-1.759452,108.07
3212,8.916513,333,-1.259682,108.07
3213,8.919289,334,-0.585360,108.07
3214,8.922065,335,0.232690,108.07
3215,8.924841,336,1.092636,108.07
3216,8.927617,338,2.035036,108.07
3217,8.930393,340,3.256337,108.07
3218,8.933169,342,4.851805,108.07
3219,8.935945,344,6.717689,108.07
3220,8.938721,345,8.596073,108.07
3221,8.941497,344,10.036347,108.07
3222,8.944273,344,10.709440,108.07
3223,8.947049,344,10.775340,108.07
3224,8.949825,344,10.580649,108.07
3225,8.952601,344,10.313362,108.07
3226,8.955377,345,10.107760,108.07
3227,8.958153,345,10.060445,108.07
3228,8.960929,344,10.028841,108.07
3229,8.963705,341,9.610158,108.07
3230,8.966481,339,8.486079,108.07
3231,8.969257,336,6.657231,108.07
3232,8.972033,334,4.298636,108.07
3233,8.974809,331,1.626193,108.07
3234,8.977585,331,-0.985373,108.07
3235,8.980361,329,-3.118611,108.07
3236,8.983137,327,-4.810458,108.07
3237,8.985913,325,-6.379374,108.07
3238,8.988689,325,-7.865386,108.07
3239,8.991465,324,-9.105705,108.07
3240,8.994241,324,-10.027186,108.07
3241,8.997017,324,-10.576606,108.07
3242,8.999793,325,-10.656309,108.07
3243,9.002569,326,-10.230392,108.07
3244,9.005345,326,-9.490079,108.07
3245,9.008121,326,-8.795827,108.07
3246,9.010897,326,-8.336234,108.07
3247,9.013673,325,-8.148732,108.07
3248,9.016449,325,-8.215119,108.07
3249,9.019225,325,-8.384538,108.07
3250,9.022001,326,-8.452393,108.07
3251,9.024777,325,-8.398952,108.07
3252,9.027553,324,-8.467932,108.07
3253,9.030329,324,-8.741182,108.07
3254,9.033105,323,-9.083767,108.07
3255,9.035881,322,-9.527049,108.07
3256,9.038657,322,-10.094499,108.07
3257,9.041433,319,-10.849760,108.07
3258,9.044209,318,-11.959371,108.07
3259,9.046985,317,-13.244948,108.07
3260,9.049761,314,-14.566234,108.07
3261,9.052537,307,-16.502918,108.07
3262,9.055313,298,-20.028458,108.07
3263,9.058089,286,-25.844834,108.07
3264,9.060865,272,-34.227164,108.07
3265,9.063641,262,-44.659790,108.07
3266,9.066417,263,-54.966613,108.07
3267,9.069193,276,-61.441019,106.47
3268,9.071969,303,-60.119585,106.47
3269,9.074745,331,-48.766967,106.47
3270,9.077521,355,-28.697202,106.47
3271,9.080297,374,-4.011177,106.47
3272,9.083073,390,20.924073,106.47
3273,9.085849,406,43.301154,106.47
3274,9.088625,421,62.249014,106.47
3275,9.091401,430,77.710975,106.47
3276,9.094177,432,89.264444,106.47
3277,9.096953,425,95.932515,106.47
3278,9.099729,411,96.522229,106.47
3279,9.102505,391,90.147145,106.47
3280,9.105281,367,76.657157,106.47
3281,9.108057,341,56.887229,106.47
3282,9.110833,319,32.975052,106.47
3283,9.113609,301,8.124412,106.47
3284,9.116385,289,-14.527029,106.47
3285,9.119161,280,-32.994279,106.47
3286,9.121937,273,-46.872292,106.47
3287,9.124713,268,-56.797918,106.47
3288,9.127489,267,-63.353428,106.47
3289,9.130265,271,-66.462601,106.47
3290,9.133041,280,-65.633064,106.47
3291,9.135817,291,-60.712887,106.47
3292,9.138593,301,-52.492998,106.47
3293,9.141369,308,-42.613171,106.47
3294,9.144145,312,-32.898753,106.47
3295,9.146921,314,-24.715967,106.47
3296,9.149697,315,-18.730931,106.47
3297,9.152473,315,-15.064873,106.47
3298,9.155249,315,-13.452992,106.47
3299,9.158025,316,-13.177601,106.47
3300,9.160801,317,-13.246503,106.47
3301,9.163577,316,-13.082701,106.47
3302,9.166353,316,-12.736098,106.47
3303,9.169129,316,-12.407564,106.47
3304,9.171905,316,-12.256102,106.47
3305,9.174681,316,-12.331086,106.47
3306,9.177457,315,-12.538286,106.47
3307,9.180233,316,-12.637946,106.47
3308,9.183009,316,-12.375983,106.47
3309,9.185785,316,-11.888693,106.47
3310,9.188561,315,-11.606022,106.47
3311,9.191337,315,-11.736281,106.47
3312,9.194113,315,-12.039464,106.47
3313,9.196889,314,-12.233246,106.47
3314,9.199665,316,-12.137227,106.47
3315,9.202441,316,-11.645483,106.47
3316,9.205217,316,-11.053744,106.47
3317,9.207993,316,-10.683723,106.47
3318,9.210769,315,-10.559675,106.47
3319,9.213545,314,-10.647201,106.47
3320,9.216321,314,-10.848835,106.47
3321,9.219097,315,-10.963074,106.47
3322,9.221873,315,-10.908902,106.47
3323,9.224649,314,-10.878213,106.47
3324,9.227425,313,-11.055438,106.47
3325,9.230201,311,-11.474448,106.47
3326,9.232977,311,-12.061628,106.47
3327,9.235753,311,-12.617903,106.47
3328,9.238529,312,-12.969390,106.47
3329,9.241305,312,-13.043630,106.47
3330,9.244081,312,-12.856948,106.47
3331,9.246857,312,-12.446430,106.47
3332,9.249633,313,-11.812349,106.47
3333,9.252409,313,-11.071944,106.47
3334,9.255185,314,-10.432993,106.47
3335,9.257961,313,-10.026842,106.47
3336,9.260737,312,-9.943848,106.47
3337,9.263513,310,-10.223937,106.47
3338,9.266289,308,-10.916462,106.47
3339,9.269065,308,-11.948937,106.47
3340,9.271841,308,-12.999856,106.47
3341,9.274617,308,-13.794243,106.47
3342,9.277393,309,-14.108888,106.47
3343,9.280169,308,-13.877221,106.47
3344,9.282945,309,-13.308566,106.47
3345,9.285721,309,-12.624960,106.47
3346,9.288497,307,-12.234527,106.47
3347,9.291273,306,-12.525190,106.47
3348,9.294049,305,-13.315129,106.47
3349,9.296825,305,-14.104373,106.47
3350,9.299601,305,-14.542469,106.47
3351,9.302377,305,-14.633115,106.47
3352,9.305153,305,-14.588995,106.47
3353,9.307929,304,-14.607500,106.47
3354,9.310705,302,-14.872913,106.47
3355,9.313481,299,-15.585725,106.47
3356,9.316257,297,-16.834782,106.47
3357,9.319033,294,-18.584062,106.47
3358,9.321809,292,-20.758809,106.47
3359,9.324585,290,-23.109062,106.47
3360,9.327361,288,-25.296128,106.47
3361,9.330137,288,-26.978624,106.47
3362,9.332913,288,-27.869457,106.47
3363,9.335689,287,-28.127038,106.47
3364,9.338465,287,-28.177040,106.47
3365,9.341241,286,-28.236371,106.47
3366,9.344017,285,-28.369307,106.47
3367,9.346793,284,-28.571434,106.47
3368,9.349569,282,-28.904393,106.47
3369,9.352345,281,-29.514364,106.47
3370,9.355121,279,-30.444927,106.47
3371,9.357897,277,-31.677842,106.47
3372,9.360673,276,-33.020242,106.47
3373,9.363449,276,-34.051112,106.47
3374,9.366225,276,-34.484689,106.47
3375,9.369001,277,-34.325735,106.47
3376,9.371777,279,-33.595502,106.47
3377,9.374553,280,-32.315613,106.47
3378,9.377329,281,-30.670409,106.47
3379,9.380105,283,-28.782080,106.47
3380,9.382881,286,-26.561609,106.47
3381,9.385657,288,-24.018921,106.47
3382,9.388433,292,-21.258763,106.47
3383,9.391209,296,-18.148512,106.47
3384,9.393985,300,-14.524883,106.47
3385,9.396761,304,-10.437714,106.47
3386,9.399537,308,-6.078821,106.47
3387,9.402313,311,-1.775016,106.47
3388,9.405089,315,2.211292,106.47
3389,9.407865,317,5.797258,106.47
3390,9.410641,321,9.054540,106.47
3391,9.413417,324,12.236266,106.47
3392,9.416193,327,15.437342,106.47
3393,9.418969,329,18.455964,106.47
3394,9.421745,332,21.136249,106.47
3395,9.424521,335,23.604333,106.47
3396,9.427297,336,25.941489,106.47
3397,9.430073,336,27.869983,106.47
3398,9.432849,337,29.173124,106.47
3399,9.435625,339,30.062387,106.47
3400,9.438401,340,30.837863,106.47
3401,9.441177,342,31.640159,106.47
3402,9.443953,343,32.570670,106.47
3403,9.446729,343,33.533080,106.47
3404,9.449505,343,34.252569,106.47
3405,9.452281,344,34.642944,106.47
3406,9.455057,345,34.857889,106.47
3407,9.457833,345,34.991554,106.47
3408,9.460609,345,35.005457,106.47
3409,9.463385,346,34.998080,106.47
3410,9.466161,346,35.105404,106.47
3411,9.468937,346,35.204361,106.47
3412,9.471713,346,35.103169,106.47
3413,9.474489,346,34.780614,106.47
3414,9.477265,346,34.352248,106.47
3415,9.480041,346,33.959764,106.47
3416,9.482817,346,33.657765,106.47
3417,9.485593,346,33.388845,106.47
3418,9.488369,346,33.060932,106.47
3419,9.491145,346,32.647290,106.47
3420,9.493921,347,32.290270,106.47
3421,9.496697,347,32.159281,106.47
3422,9.499473,346,32.102007,106.47
3423,9.502249,345,31.766628,106.47
3424,9.505025,344,30.982995,106.47
3425,9.507801,342,29.736907,106.47
3426,9.510577,342,28.203272,106.47
3427,9.513353,343,26.897725,106.47
3428,9.516129,343,26.188870,106.47
3429,9.518905,344,26.002526,106.47
3430,9.521681,345,26.194643,106.47
3431,9.524457,344,26.507947,106.47
3432,9.527233,343,26.521118,106.47
3433,9.530009,342,26.046104,106.47
3434,9.532785,343,25.320985,106.47
3435,9.535561,343,24.709729,106.47
3436,9.538337,344,24.357085,106.47
3437,9.541113,344,24.246443,106.47
3438,9.543889,343,24.186966,106.47
3439,9.546665,342,23.897015,106.47
3440,9.549441,341,23.258132,106.47
3441,9.552217,342,22.440445,106.47
3442,9.554993,343,21.828366,106.47
3443,9.557769,343,21.583963,106.47
3444,9.560545,343,21.556505,106.47
3445,9.563321,342,21.525587,106.47
3446,9.566097,340,21.176287,106.47
3447,9.568873,338,20.199315,106.47
3448,9.571649,337,18.618039,106.47
3449,9.574425,337,16.860633,106.47
3450,9.577201,337,15.430192,106.47
3451,9.579977,338,14.633361,106.47
3452,9.582753,339,14.561738,106.47
3453,9.585529,341,15.136945,106.47
3454,9.588305,342,16.144425,106.47
3455,9.591081,342,17.191892,106.47
3456,9.593857,341,17.846381,106.47
3457,9.596633,340,17.889234,106.47
3458,9.599409,339,17.361609,106.47
3459,9.602185,339,16.487400,106.47
3460,9.604961,340,15.635150,106.47
3461,9.607737,341,15.161526,106.47
3462,9.610513,339,14.980822,106.47
3463,9.613289,338,14.654236,106.47
3464,9.616065,339,14.162667,106.47
3465,9.618841,339,13.798821,106.47
3466,9.621617,340,13.624123,106.47
3467,9.624393,341,13.664040,106.47
3468,9.627169,342,14.007170,106.47
3469,9.629945,342,14.596427,106.47
3470,9.632721,341,15.116237,106.47
3471,9.635497,341,15.250076,106.47
3472,9.638273,339,14.838070,106.47
3473,9.641049,339,13.890354,106.47
3474,9.643825,338,12.716506,106.47
3475,9.646601,338,11.663726,106.47
3476,9.649377,337,10.853043,106.47
3477,9.652153,337,10.209178,106.47
3478,9.654929,337,9.660541,106.47
3479,9.657705,338,9.281589,106.47
3480,9.660481,338,9.167546,106.47
3481,9.663257,338,9.262165,106.47
3482,9.666033,338,9.430473,106.47
3483,9.668809,338,9.558853,106.47
3484,9.671585,337,9.468873,106.47
3485,9.674361,337,9.054532,106.47
3486,9.677137,337,8.494032,106.47
3487,9.679913,336,7.965043,106.47
3488,9.682689,337,7.555104,106.47
3489,9.685465,338,7.461475,106.47
3490,9.688241,339,7.750493,106.47
3491,9.691017,339,8.220479,106.47
3492,9.693793,339,8.621517,106.47
3493,9.696569,339,8.867107,106.47
3494,9.699345,338,8.916161,106.47
3495,9.702121,338,8.693945,106.47
3496,9.704897,337,8.194935,106.47
3497,9.707673,335,7.329334,106.47
3498,9.710449,335,6.148456,106.47
3499,9.713225,335,5.069373,106.47
3500,9.716001,335,4.388483,106.47
3501,9.718777,336,4.129569,106.47
3502,9.721553,336,4.196779,106.47
3503,9.724329,336,4.365333,106.47
3504,9.727105,337,4.560779,106.47
3505,9.729881,337,4.869430,106.47
3506,9.732657,337,5.211161,106.47
3507,9.735433,337,5.426985,106.47
3508,9.738209,336,5.376743,106.47
3509,9.740985,336,5.010559,106.47
3510,9.743761,335,4.446541,106.47
3511,9.746537,336,3.908148,106.47
3512,9.749313,336,3.629271,106.47
3513,9.752089,336,3.582570,106.47
3514,9.754865,337,3.654646,106.47
3515,9.757641,337,3.845910,106.47
3516,9.760417,337,4.071046,106.47
3517,9.763193,336,4.161117,106.47
3518,9.765969,335,3.939784,106.47
3519,9.768745,335,3.408723,106.47
3520,9.771521,335,2.788109,106.47
3521,9.774297,336,2.339656,106.47
3522,9.777073,337,2.294211,106.47
3523,9.779849,337,2.650204,106.47
3524,9.782625,336,3.060154,106.47
3525,9.785401,335,3.121672,106.47
3526,9.788177,335,2.755463,106.47
3527,9.790953,335,2.198143,106.47
3528,9.793729,335,1.688200,106.47
3529,9.796505,335,1.340217,106.47
3530,9.799281,335,1.178776,106.47
3531,9.802057,335,1.149196,106.47
3532,9.804833,335,1.153220,106.47
3533,9.807609,335,1.112632,106.47
3534,9.810385,335,1.016662,106.47
3535,9.813161,336,0.990134,106.47
3536,9.815937,337,1.240208,106.47
3537,9.818713,337,1.750396,106.47
3538,9.821489,336,2.170597,106.47
3539,9.824265,336,2.223615,106.47
3540,9.827041,337,2.080040,106.47
3541,9.829817,337,2.034750,106.47
3542,9.832593,336,2.024421,106.47
3543,9.835369,337,1.943462,106.47
3544,9.838145,337,1.921897,106.47
3545,9.840921,337,1.970709,106.47
3546,9.843697,337,1.987355,106.47
3547,9.846473,337,1.956659,106.47
3548,9.849249,337,1.905169,106.47
3549,9.852025,337,1.853475,106.47
3550,9.854801,338,1.874094,106.47
3551,9.857577,339,2.108387,106.47
3552,9.860353,337,2.381083,106.47
